191.299911499,80.25
191.603515625,82.3
191.907119751,77.8
192.210693359,83.1
192.514251709,78.7
192.817810059,83.125
193.121368408,82.825
193.42489624,87.2
193.728408813,77.875
194.031936646,80.025
194.33543396,73.475
194.638916016,92.25
194.94241333,75.3
195.245880127,77.55
195.549331665,75.7
195.852767944,89.95
196.156204224,418.65
196.459625244,418.3
196.763015747,415.325
197.066436768,424.275
197.369812012,413.675
197.673187256,427.125
197.9765625,417.0
198.279922485,430.725
198.583251953,421.875
198.886581421,426.95
199.18989563,430.6
199.493209839,437.425
199.79649353,433.375
200.09979248,454.5
200.403076172,456.2
200.706314087,477.75
201.009567261,485.125
201.312820435,496.225
201.616027832,492.625
201.919235229,504.575
202.222457886,525.9
202.525634766,540.6
202.828826904,561.35
203.132003784,578.05
203.435150146,595.925
203.738296509,611.025
204.041412354,617.875
204.344558716,636.95
204.647659302,647.425
204.950759888,662.85
205.253845215,662.1
205.556930542,673.2
205.859985352,672.775
206.163024902,673.7
206.466079712,704.875
206.769104004,740.3
207.072113037,758.375
207.375137329,749.325
207.678131104,772.275
207.981109619,787.975
208.284088135,802.525
208.587036133,829.35
208.889984131,838.325
209.19291687,859.825
209.495849609,869.375
209.798751831,898.15
210.101654053,905.425
210.404556274,946.875
210.707427979,990.225
211.010269165,1060.875
211.31312561,1144.5
211.615982056,1215.375
211.918807983,1308.7
212.221618652,1410.475
212.524429321,1520.325
212.827224731,1622.3
213.130004883,1748.075
213.432769775,1875.675
213.735534668,1976.825
214.038269043,2110.8
214.341003418,2201.025
214.643737793,2301.4
214.946456909,2408.65
215.249145508,2475.825
215.551834106,2471.7
215.854507446,2415.0
216.157165527,2272.225
216.45980835,2056.975
216.762451172,1821.85
217.065078735,1530.95
217.36769104,1294.725
217.670303345,1257.95
217.972885132,1508.425
218.275466919,1988.2
218.578048706,2604.625
218.880599976,3235.375
219.183120728,3803.55
219.485656738,4323.7
219.788192749,4774.5
220.090682983,5166.0
220.393188477,5514.925
220.695663452,5806.325
220.998138428,6032.0
221.300582886,6260.475
221.603042603,6395.9
221.905487061,6564.95
222.207901001,6725.2
222.510299683,6863.25
222.812728882,7030.7
223.115097046,7125.775
223.41746521,7309.3
223.719848633,7474.775
224.022171021,7608.45
224.324508667,7713.5
224.626846313,7955.775
224.929168701,8084.775
225.231460571,8242.725
225.533737183,8431.4
225.836013794,8616.25
226.138290405,8788.925
226.440536499,8926.475
226.742767334,9083.85
227.044998169,9189.875
227.347213745,9444.525
227.649429321,9568.9
227.951629639,9685.2
228.253799438,9808.025
228.555953979,9930.45
228.858123779,10067.225
229.160263062,10184.45
229.462371826,10305.6
229.764511108,10411.225
230.066619873,10526.25
230.36869812,10685.225
230.670776367,10811.175
230.972854614,10980.95
231.274902344,11165.0
231.576950073,11372.125
231.878967285,11497.675
232.180999756,11728.825
232.48298645,11920.875
232.784988403,12162.85
233.086975098,12363.325
233.388946533,12457.7
233.69090271,12725.25
233.992858887,12922.6
234.294769287,13008.3
234.596694946,13209.175
234.898605347,13409.9
235.200500488,13506.95
235.502380371,13673.875
235.804244995,13765.325
236.106109619,13776.2
236.407958984,13904.35
236.709777832,14025.15
237.011581421,14138.825
237.313400269,14157.3
237.615203857,14221.75
237.916976929,14407.025
238.21875,14406.2
238.520507812,14458.825
238.822250366,14540.975
239.12399292,14614.15
239.425704956,14663.225
239.727401733,14647.35
240.02911377,14795.225
240.330780029,14749.45
240.632446289,14826.875
240.93409729,14891.5
241.23576355,14967.175
241.537384033,15082.2
241.839004517,15091.2
242.140594482,15163.8
242.442199707,15267.975
242.743774414,15331.6
243.045333862,15441.575
243.346923828,15495.675
243.648452759,15509.475
243.949966431,15493.75
244.251495361,15573.55
244.552993774,15549.15
244.854492188,15466.5
245.155975342,15506.875
245.457443237,15545.1
245.758880615,15466.5
246.060333252,15443.5
246.36177063,15371.425
246.66317749,15302.825
246.964569092,15266.675
247.265945435,15181.125
247.567337036,15202.575
247.86869812,15201.425
248.170059204,15173.825
248.471389771,15172.45
248.772705078,15196.425
249.074035645,15222.725
249.375335693,15245.55
249.676620483,15285.975
249.977890015,15390.1
250.279159546,15518.225
250.58039856,15615.325
250.881637573,15661.275
251.182876587,15740.075
251.484069824,15924.15
251.785263062,16067.325
252.086456299,16268.075
252.387619019,16327.875
252.688781738,16363.025
252.989929199,16383.75
253.291061401,16383.75
253.592178345,16383.75
253.893280029,16383.75
254.194366455,16383.75
254.49546814,16383.75
254.796524048,16383.75
255.097579956,16383.75
255.398620605,16383.75
255.699645996,16383.75
256.000640869,16383.75
256.30166626,16383.75
256.602661133,16383.75
256.903656006,16383.75
257.204589844,16383.75
257.505523682,16383.75
257.80645752,16383.75
258.107391357,16383.75
258.408294678,16383.75
258.709228516,16383.75
259.010070801,16383.75
259.310943604,16383.75
259.611846924,16383.75
259.912658691,16383.75
260.213500977,16383.75
260.514343262,16383.75
260.815124512,16383.75
261.115936279,16379.4
261.416717529,16352.975
261.717468262,16266.375
262.018218994,16193.0
262.318969727,16096.95
262.619689941,16172.325
262.920410156,16170.95
263.221130371,16270.775
263.521789551,16335.7
263.822479248,16335.475
264.123138428,16383.75
264.42376709,16383.025
264.72442627,16381.075
265.025054932,16377.175
265.325622559,16360.175
265.626251221,16368.8
265.926818848,16261.55
266.227386475,16070.2
266.527954102,16033.875
266.828460693,16037.05
267.12902832,15751.0
267.429534912,15612.5
267.730010986,15500.575
268.030517578,15335.775
268.330993652,15215.75
268.631439209,15135.525
268.931915283,15034.05
269.232299805,14947.05
269.532745361,14851.25
269.8331604,14683.625
270.133544922,14599.4
270.433929443,14599.8
270.734313965,14488.825
271.034637451,14523.0
271.334991455,14415.175
271.635314941,14480.325
271.935638428,14480.6
272.235931396,14563.3
272.536254883,14621.875
272.836486816,14707.875
273.136749268,14847.6
273.437011719,15049.3
273.737213135,15211.6
274.037445068,15361.675
274.337677002,15572.025
274.6378479,15746.875
274.938049316,15954.95
275.238220215,16145.95
275.538360596,16342.65
275.838500977,16383.75
276.138641357,16383.75
276.438751221,16383.75
276.738830566,16383.75
277.03894043,16383.75
277.338989258,16383.75
277.639038086,16383.75
277.939056396,16383.75
278.239105225,16383.75
278.539093018,16383.75
278.839141846,16383.75
279.139129639,16383.75
279.439086914,16383.75
279.739044189,16383.75
280.039001465,16383.75
280.338928223,16383.75
280.63885498,16383.75
280.938781738,16383.75
281.238647461,16383.75
281.538513184,16383.75
281.838409424,16383.75
282.138244629,16383.75
282.438079834,16383.75
282.737945557,16383.75
283.037719727,16383.75
283.337524414,16383.75
283.637298584,16383.75
283.937072754,16383.75
284.236816406,16383.75
284.536560059,16383.75
284.836303711,16383.75
285.136016846,16383.75
285.43572998,16383.75
285.735412598,16383.75
286.035064697,16383.75
286.334747314,16383.75
286.634368896,16383.75
286.933990479,16383.75
287.233642578,16383.75
287.533203125,16383.75
287.832824707,16383.75
288.132385254,16383.75
288.431945801,16383.75
288.731506348,16383.75
289.031036377,16383.75
289.330566406,16383.75
289.630065918,16383.75
289.92956543,16383.75
290.229034424,16383.75
290.528503418,16383.75
290.827941895,16383.75
291.127380371,16383.75
291.42678833,16383.75
291.726226807,16383.75
292.025604248,16383.75
292.324981689,16383.75
292.624359131,16383.75
292.923736572,16383.75
293.223052979,16383.75
293.522369385,16383.75
293.821685791,16383.75
294.12097168,16383.75
294.420257568,16383.75
294.719543457,16383.75
295.018768311,16383.75
295.318023682,16383.75
295.617248535,16383.75
295.916442871,16383.75
296.215667725,16383.75
296.514862061,16383.75
296.813995361,16383.75
297.11315918,16383.75
297.412322998,16383.75
297.711425781,16383.75
298.010559082,16383.75
298.309631348,16383.75
298.608734131,16383.75
298.907806396,16383.75
299.206848145,16383.75
299.505889893,16383.75
299.804901123,16383.75
300.103912354,16383.75
300.402954102,16383.75
300.701904297,16383.75
301.00088501,16383.75
301.299835205,16383.75
301.5987854,16383.75
301.897735596,16383.75
302.196624756,16383.75
302.495513916,16383.75
302.794403076,16383.75
303.093292236,16383.75
303.392120361,16383.75
303.690979004,16383.75
303.989837646,16383.75
304.288604736,16383.75
304.587402344,16383.75
304.886199951,16383.75
305.184967041,16383.75
305.483734131,16383.75
305.782501221,16383.75
306.081176758,16383.75
306.37991333,16383.75
306.678619385,16383.75
306.977294922,16383.75
307.275970459,16383.75
307.574645996,16383.75
307.873260498,16383.75
308.171875,16383.75
308.470489502,16383.75
308.769104004,16383.75
309.067687988,16383.75
309.366241455,16383.75
309.664794922,16383.75
309.963348389,16383.75
310.261871338,16383.75
310.560394287,16383.75
310.858856201,16383.75
311.157348633,16383.75
311.455810547,16383.75
311.754272461,16383.75
312.052703857,16383.75
312.351135254,16383.75
312.649536133,16383.75
312.947937012,16383.75
313.246307373,16383.75
313.544647217,16383.75
313.843017578,16383.75
314.141387939,16383.75
314.439697266,16383.75
314.738006592,16383.75
315.036315918,16383.75
315.334564209,16383.75
315.6328125,16383.75
315.931091309,16383.75
316.229309082,16383.75
316.527526855,16383.75
316.825744629,16383.75
317.123901367,16383.75
317.422088623,16383.75
317.720245361,16383.75
318.0184021,16383.75
318.316497803,16383.75
318.614654541,16383.75
318.912750244,16383.75
319.21081543,16383.75
319.50894165,16383.75
319.806945801,16383.75
320.104980469,16383.75
320.403045654,16383.75
320.701049805,16383.75
320.999023438,16383.75
321.297027588,16383.75
321.595001221,16383.75
321.892913818,16383.75
322.190887451,16383.75
322.488830566,16383.75
322.786712646,16383.75
323.084625244,16383.75
323.382507324,16383.75
323.680358887,16383.75
323.978210449,16383.75
324.276062012,16383.75
324.573852539,16383.75
324.871643066,16383.75
325.169464111,16383.75
325.467224121,16383.75
325.764984131,16383.75
326.062744141,16383.75
326.360473633,16383.75
326.658203125,16383.75
326.955871582,16383.75
327.253570557,16383.75
327.551239014,16383.75
327.848907471,16383.75
328.146514893,16383.75
328.444152832,16383.75
328.741790771,16383.75
329.039367676,16383.75
329.336914062,16383.75
329.634521484,16383.75
329.932067871,16383.75
330.229553223,16383.75
330.527160645,16383.75
330.824615479,16383.75
331.12210083,16383.75
331.419586182,16383.75
331.717041016,16378.225
332.014465332,16206.375
332.311920166,16188.675
332.609313965,15993.4
332.906707764,16071.925
333.204101562,15997.675
333.501495361,16023.325
333.798828125,16144.4
334.096160889,16216.6
334.39352417,16371.7
334.690795898,16383.75
334.988098145,16383.75
335.285400391,16383.75
335.582641602,16383.75
335.879882812,16383.75
336.177124023,16383.75
336.474334717,16383.75
336.77154541,16383.75
337.068725586,16383.75
337.365905762,16383.75
337.66305542,16383.75
337.960205078,16383.75
338.257324219,16383.75
338.554443359,16383.75
338.8515625,16383.75
339.148590088,16383.75
339.445648193,16383.75
339.742736816,16383.75
340.039764404,16383.75
340.336761475,16383.75
340.63381958,16383.75
340.930755615,16383.75
341.227722168,16383.75
341.524688721,16383.75
341.821624756,16383.75
342.118560791,16383.75
342.415496826,16383.75
342.712402344,16383.75
343.009246826,16383.75
343.306121826,16383.75
343.602966309,16383.75
343.899810791,16383.75
344.196624756,16383.75
344.493438721,16383.75
344.79019165,16383.75
345.086975098,16383.75
345.383758545,16383.75
345.680480957,16383.75
345.977203369,16383.75
346.273956299,16383.75
346.570617676,16383.75
346.86730957,16383.75
347.163970947,16383.75
347.460601807,16383.75
347.757232666,16383.75
348.053894043,16383.75
348.350463867,16383.75
348.647064209,16383.75
348.943634033,16383.75
349.24017334,16383.75
349.536712646,16383.75
349.833251953,16383.75
350.129760742,16383.75
350.426208496,16383.75
350.722747803,16383.75
351.019195557,16383.75
351.315612793,16383.75
351.612060547,16383.75
351.908508301,16383.75
352.204864502,16383.75
352.501281738,16383.75
352.797637939,16383.75
353.093963623,16383.75
353.390319824,16383.75
353.686645508,16383.75
353.982940674,16383.75
354.27923584,16383.75
354.575531006,16383.75
354.871765137,16383.75
355.167999268,16383.75
355.464233398,16383.75
355.760437012,16383.75
356.056640625,16383.75
356.352813721,16383.75
356.648956299,16383.75
356.945129395,16383.75
357.241271973,16383.75
357.537384033,16383.75
357.833496094,16383.75
358.129577637,16383.75
358.425628662,16383.75
358.721679688,16383.75
359.017730713,16383.75
359.313720703,16383.75
359.609710693,16383.75
359.905761719,16383.75
360.201721191,16383.75
360.497650146,16371.65
360.793609619,16328.125
361.089538574,16150.55
361.385437012,15915.5
361.681365967,15834.125
361.977233887,15750.05
362.273071289,15597.2
362.568908691,15339.05
362.864746094,15052.075
363.160552979,14744.4
363.456359863,14297.3
363.752166748,13948.175
364.047912598,13732.9
364.343658447,13639.75
364.639434814,13732.55
364.935119629,13805.975
365.230834961,13995.35
365.526550293,14047.725
365.822174072,14117.1
366.117858887,14167.2
366.413482666,14286.125
366.709075928,14354.1
367.004730225,14095.525
367.300292969,14104.175
367.595855713,14264.15
367.891448975,13947.1
368.186981201,13725.05
368.482513428,13574.6
368.778015137,13537.35
369.073547363,13463.025
369.36895752,13532.175
369.664428711,13232.35
369.95993042,12939.0
370.255310059,12792.55
370.550720215,12742.1
370.846160889,12659.9
371.14151001,12580.725
371.436859131,12493.775
371.73223877,12450.95
372.027557373,12356.625
372.322875977,12204.825
372.618164062,12140.1
372.913482666,12019.5
373.208709717,11969.25
373.503967285,11815.375
373.799194336,11720.9
374.094421387,11706.1
374.389648438,11634.275
374.684844971,11609.275
374.979980469,11755.35
375.275146484,11766.9
375.570281982,11849.975
375.865386963,11903.075
376.160522461,11712.8
376.455596924,11783.625
376.750640869,12010.775
377.045715332,12069.9
377.340759277,12147.0
377.635772705,12330.275
377.93081665,12457.475
378.225769043,12645.95
378.520751953,12806.55
378.815734863,12715.6
379.110656738,13139.3
379.405548096,13621.425
379.700500488,13221.825
379.995391846,12620.975
380.290252686,12770.25
380.585083008,13050.55
380.879974365,13183.25
381.17477417,12960.825
381.469543457,12806.85
381.764404297,12740.675
382.059143066,12858.35
382.353912354,13104.475
382.648651123,13356.55
382.943389893,13272.25
383.238067627,12879.6
383.532775879,12832.25
383.827484131,12686.925
384.12210083,12696.6
384.416778564,12530.225
384.711425781,12263.95
385.006011963,12320.625
385.300628662,12350.125
385.595184326,12586.9
385.88973999,12815.775
386.184295654,13098.525
386.478820801,13335.275
386.77331543,13584.725
387.067840576,13911.775
387.362335205,14160.125
387.656768799,14326.525
387.951202393,14471.75
388.245635986,14644.675
388.540039062,14873.275
388.834472656,15047.475
389.128875732,14791.025
389.423187256,14171.15
389.717559814,14000.075
390.011871338,14354.45
390.306182861,14427.925
390.600463867,14489.95
390.894775391,14655.125
391.189025879,14732.625
391.48324585,14726.375
391.777526855,14898.7
392.071685791,15447.15
392.365875244,15707.85
392.660064697,15838.6
392.95425415,16383.75
393.248382568,16383.75
393.542510986,15499.25
393.836608887,15008.3
394.130706787,15015.2
394.424804688,14868.125
394.71887207,15183.35
395.012878418,15147.65
395.306915283,14857.475
395.600921631,14710.35
395.894927979,14568.975
396.188903809,14722.25
396.482879639,14739.675
396.776794434,15330.625
397.070739746,15246.075
397.364654541,15281.075
397.658538818,16337.55
397.952423096,16376.225
398.246307373,16281.875
398.540100098,16383.75
398.833953857,16383.75
399.127746582,16090.2
399.421508789,16147.875
399.715301514,15989.7
400.009063721,15801.2
400.30279541,15373.425
400.596496582,15120.65
400.890258789,15598.075
401.183929443,15844.15
401.47756958,15531.15
401.771240234,14890.9
402.064880371,14935.75
402.35848999,15064.575
402.652130127,14796.675
402.945678711,15005.375
403.239257812,14865.05
403.532775879,14718.775
403.82635498,14873.9
404.119842529,14650.575
404.413360596,14609.3
404.706848145,14777.05
405.000274658,14608.325
405.293762207,14837.2
405.587188721,14999.725
405.880584717,14537.8
406.17401123,14037.275
406.467407227,13470.0
406.760742188,13479.6
407.054107666,13606.25
407.347442627,13405.975
407.640716553,13416.525
407.934051514,13559.25
408.227325439,13772.975
408.520568848,14360.05
408.813842773,14646.075
409.107086182,14062.425
409.400238037,13925.275
409.693450928,13732.975
409.986633301,14130.55
410.279754639,13874.275
410.572875977,13029.475
410.86605835,12831.825
411.159118652,12896.8
411.452209473,12911.7
411.745330811,12531.25
412.038360596,12307.525
412.331390381,12399.025
412.624420166,12527.625
412.917388916,12226.725
413.210388184,11680.2
413.503387451,11595.025
413.796295166,11332.625
414.089233398,10777.425
414.382141113,10559.9
414.675048828,10523.6
414.967926025,10624.475
415.260803223,10494.925
415.55368042,10594.9
415.846466064,10446.175
416.139282227,10704.9
416.432098389,11078.475
416.724853516,11089.25
417.017608643,10909.5
417.31036377,10941.775
417.603088379,11344.675
417.895782471,11251.275
418.188476562,11176.975
418.481140137,11353.225
418.773803711,11519.825
419.066436768,11504.325
419.359039307,11704.3
419.651641846,11706.625
419.944244385,11707.9
420.236816406,11580.3
420.529327393,12213.425
420.821899414,12432.025
421.114379883,12182.425
421.406860352,13030.65
421.699371338,13673.775
421.991821289,13532.5
422.284240723,12881.85
422.576721191,12429.825
422.869110107,12121.125
423.161468506,11966.325
423.453857422,12018.75
423.74621582,11670.55
424.038543701,11229.175
424.330871582,11120.325
424.623168945,10924.75
424.915435791,11319.8
425.207702637,11187.3
425.499969482,11000.0
425.792205811,10850.325
426.084411621,10047.1
426.376617432,10302.475
426.668762207,10517.8
426.9609375,10132.5
427.253082275,10507.725
427.545196533,11757.625
427.837310791,10947.475
428.129425049,10031.9
428.421447754,10724.925
428.713531494,10754.55
429.005554199,10711.1
429.297576904,10752.525
429.589599609,12066.425
429.881561279,13005.025
430.173522949,12370.475
430.465484619,12239.7
430.757415771,12455.475
431.049316406,11771.95
431.341186523,11066.675
431.633117676,10742.775
431.924957275,9813.5
432.21673584,9449.525
432.508636475,9884.05
432.800415039,9997.175
433.092163086,9651.075
433.383972168,9578.7
433.675689697,11767.15
433.967437744,13297.275
434.259155273,10406.225
434.550872803,9355.625
434.842498779,9546.85
435.134185791,9928.625
435.425842285,10036.45
435.717437744,9682.9
436.009063721,9121.475
436.30065918,9571.525
436.592224121,10654.7
436.883758545,10078.125
437.175323486,9210.7
437.466827393,9153.975
437.758331299,9240.225
438.049804688,9281.05
438.341247559,9494.0
438.63269043,9758.3
438.924163818,9699.775
439.215515137,9589.925
439.50692749,9260.05
439.798309326,9316.75
440.089660645,9322.075
440.380981445,9008.1
440.672332764,9035.425
440.963623047,9870.125
441.254882812,11295.825
441.546173096,11896.8
441.837402344,11117.075
442.128631592,10516.05
442.41986084,10442.8
442.711029053,10079.675
443.002197266,10264.05
443.293365479,10877.9
443.584503174,11308.775
443.875610352,11172.525
444.166717529,10417.95
444.457794189,10567.55
444.748840332,10538.975
445.039916992,10371.375
445.330932617,10676.225
445.621948242,10180.875
445.912963867,9546.8
446.203918457,10265.275
446.494812012,11054.05
446.785827637,10380.0
447.076721191,9846.125
447.367584229,9754.3
447.658447266,9644.575
447.949371338,9854.975
448.24017334,9443.05
448.530975342,9239.275
448.821838379,9786.75
449.112579346,10017.85
449.40335083,9809.95
449.694152832,9915.4
449.984863281,9924.05
450.27557373,9690.675
450.56628418,9890.2
450.856933594,9985.925
451.147583008,9498.35
451.438262939,9116.825
451.728881836,9753.125
452.019470215,10105.4
452.310089111,9429.375
452.600646973,9498.35
452.891174316,9698.025
453.181732178,9132.8
453.472229004,8690.25
453.762695312,9048.45
454.053222656,9160.825
454.343658447,8725.4
454.634063721,8535.45
454.924530029,9101.2
455.214935303,9577.675
455.505279541,9799.95
455.795715332,9373.875
456.086029053,8715.55
456.376312256,8638.9
456.666687012,8783.925
456.956939697,9109.2
457.247192383,9114.325
457.537445068,9347.175
457.827728271,9942.175
458.117919922,9726.4
458.408081055,9524.05
458.698303223,10063.65
458.988433838,9869.825
459.278564453,9306.875
459.568725586,10189.975
459.858825684,10595.15
460.148864746,9558.075
460.438995361,9437.225
460.729034424,9653.9
461.019042969,9689.15
461.309082031,10288.875
461.599060059,9921.225
461.889007568,8426.75
462.179016113,7830.525
462.468933105,8620.225
462.75881958,9002.85
463.048736572,8154.6
463.338592529,9003.3
463.628448486,10221.275
463.918365479,9235.55
464.2081604,9754.375
464.497924805,9720.775
464.787780762,10059.375
465.077514648,11088.725
465.367218018,9877.725
465.657012939,10515.525
465.946685791,11841.275
466.236358643,10576.575
466.526092529,8795.55
466.815734863,8809.0
467.105316162,8585.3
467.394927979,8658.875
467.684570312,8220.25
467.974121094,8469.875
468.263671875,8866.75
468.553222656,8152.25
468.842773438,7784.45
469.132232666,7420.2
469.42175293,7513.325
469.711212158,7412.375
470.000640869,6991.825
470.290100098,7220.85
470.579498291,7332.975
470.868835449,7358.85
471.158294678,7196.375
471.447601318,7152.3
471.736907959,7381.05
472.026275635,7595.6
472.315551758,7570.75
472.604797363,7518.15
472.894104004,8014.575
473.183319092,8354.175
473.47253418,8320.875
473.761779785,8323.775
474.05090332,8071.65
474.340087891,7889.125
474.629241943,7702.175
474.918365479,8282.8
475.207427979,9214.775
475.496551514,9283.6
475.785614014,8416.675
476.074645996,7699.175
476.363708496,8027.125
476.652679443,8500.375
476.941650391,7916.65
477.230682373,7383.475
477.519622803,7390.375
477.808502197,7905.725
478.097412109,8834.4
478.386352539,8673.825
478.675201416,7788.2
478.964050293,7411.7
479.25289917,8019.975
479.541717529,8263.025
479.830474854,7702.075
480.11932373,8865.7
480.408050537,9498.225
480.696777344,8239.35
480.985534668,7755.45
481.274200439,8067.35
481.562866211,8915.7
481.851593018,8996.925
482.140197754,8801.375
482.428833008,8275.65
482.717468262,7542.375
483.006011963,7679.2
483.294586182,8084.125
483.5831604,8228.1
483.871673584,7763.05
484.16015625,8238.425
484.448699951,9059.325
484.7371521,9179.25
485.02557373,9226.625
485.314025879,8336.15
485.602416992,12687.25
485.890777588,16383.75
486.179199219,16383.75
486.467559814,11074.875
486.755859375,7970.05
487.044219971,9288.575
487.332519531,9947.0
487.620758057,8509.425
487.908966064,7649.95
488.197265625,6935.975
488.485473633,6605.325
488.773651123,7003.65
489.061859131,7012.8
489.350006104,6854.925
489.638122559,6635.525
489.926300049,6718.475
490.214355469,6474.75
490.502441406,6324.05
490.790527344,6113.275
491.078552246,6779.9
491.366546631,6796.1
491.654602051,5980.375
491.942565918,6211.25
492.230499268,6398.6
492.518493652,6260.275
492.806396484,6385.275
493.094268799,6067.975
493.382202148,6192.45
493.670074463,6672.825
493.957885742,6101.475
494.245727539,6068.825
494.533508301,6671.225
494.821289062,6322.35
495.109100342,5726.45
495.396850586,5565.575
495.684539795,5398.25
495.972290039,6157.075
496.25994873,7383.825
496.547607422,7410.325
496.835296631,6806.425
497.122894287,5638.65
497.410522461,5352.35
497.6980896,5346.25
497.985687256,5241.7
498.273223877,5589.2
498.560760498,5870.35
498.848266602,5937.85
499.135772705,5861.925
499.423217773,5974.725
499.710693359,6405.925
499.998138428,6181.2
500.285522461,5584.3
500.572937012,5287.675
500.860290527,5486.1
501.147644043,5840.225
501.434997559,6648.225
501.722290039,6193.85
502.00958252,5370.85
502.296875,6299.975
502.584106445,6283.4
502.871337891,5633.575
503.158599854,5885.4
503.445770264,6162.325
503.732910156,6091.025
504.020141602,5432.175
504.307220459,5324.4
504.594329834,5466.85
504.881469727,5268.75
505.168518066,5490.25
505.455535889,5744.725
505.742614746,5333.175
506.029632568,5072.125
506.316589355,5764.975
506.603637695,6042.525
506.890563965,5391.5
507.177459717,4783.55
507.464385986,4478.425
507.751312256,5250.85
508.038146973,5593.75
508.325012207,5096.725
508.611877441,5280.6
508.898681641,5314.15
509.185424805,4731.475
509.472259521,4590.225
509.759002686,4888.825
510.045715332,4978.85
510.332458496,4794.025
510.619140625,5026.575
510.905761719,4733.125
511.192504883,4670.625
511.479095459,4825.85
511.765686035,4672.625
512.052307129,4377.225
512.338928223,4152.125
512.625427246,4356.25
512.91204834,4571.05
513.198486328,4525.025
513.484985352,4366.975
513.77142334,4095.7
514.057922363,4280.25
514.344299316,4269.85
514.63079834,4131.15
514.917175293,4099.45
515.203552246,3733.6
515.489868164,3633.8
515.776245117,4066.275
516.0625,4226.925
516.348815918,3879.425
516.635070801,4057.4
516.921325684,4234.4
517.207580566,4034.075
517.493774414,3687.9
517.779968262,3675.575
518.066101074,3832.0
518.352294922,3681.95
518.638366699,3671.625
518.924499512,3950.425
519.210632324,4232.225
519.496643066,4108.2
519.782714844,3762.275
520.068786621,3638.75
520.354736328,3481.675
520.640686035,3322.775
520.926757812,3507.55
521.212646484,3768.55
521.498535156,3824.65
521.784484863,3615.95
522.0703125,3376.475
522.356262207,3441.825
522.642089844,3687.575
522.927856445,3698.125
523.213684082,3654.475
523.499511719,3613.4
523.78527832,3756.95
524.070983887,3981.375
524.356750488,3880.375
524.64239502,3744.9
524.928039551,3715.4
525.213806152,3744.775
525.499389648,3697.725
525.784973145,3841.175
526.070617676,4020.35
526.356140137,3889.275
526.641723633,3924.275
526.927307129,4098.15
527.212768555,4161.4
527.498291016,4069.275
527.783752441,4057.875
528.069213867,4010.3
528.354675293,4076.775
528.640014648,4633.625
528.925476074,4910.125
529.21081543,4659.5
529.496154785,4565.4
529.781555176,4453.075
530.066833496,4488.025
530.352050781,4582.35
530.637390137,4520.475
530.922607422,4497.75
531.207824707,4507.225
531.493041992,4447.85
531.778198242,4669.775
532.063354492,4637.525
532.348571777,4433.125
532.633666992,4455.9
532.918762207,4753.65
533.203857422,5062.45
533.488891602,5165.825
533.773925781,4956.55
534.059020996,4883.125
534.343933105,4974.8
534.628967285,4892.1
534.91394043,4929.95
535.198852539,4975.125
535.483703613,4896.375
535.768676758,4689.025
536.053527832,4684.95
536.338317871,4568.925
536.62322998,4316.35
536.90802002,4245.45
537.192810059,4324.775
537.477539062,4570.225
537.762329102,4752.875
538.047058105,4874.125
538.331726074,4982.55
538.616455078,4937.925
538.901123047,4858.475
539.18572998,5022.475
539.470397949,5025.675
539.755004883,4990.525
540.039550781,4877.45
540.32409668,4703.825
540.608703613,4851.625
540.893188477,5182.1
541.17767334,5238.225
541.462158203,5248.575
541.746643066,5063.925
542.031066895,5192.225
542.315429688,5383.225
542.59979248,5353.0
542.884216309,5306.625
543.168579102,5257.85
543.452941895,5277.85
543.737243652,5464.825
544.021484375,5665.325
544.305725098,5626.65
544.590026855,5556.525
544.874267578,5572.25
545.158447266,5813.7
545.442626953,5541.175
545.726806641,5156.0
546.010925293,5272.9
546.29510498,5394.675
546.579162598,5390.3
546.863220215,5485.65
547.147277832,5735.4
547.431335449,6025.65
547.715332031,6243.95
547.999328613,6612.325
548.283325195,6646.45
548.567260742,6125.25
548.851135254,6039.775
549.135070801,5981.7
549.419006348,5599.475
549.702819824,5974.15
549.986755371,6246.35
550.270507812,6112.025
550.554321289,6234.95
550.83807373,6298.9
551.121826172,6145.875
551.405517578,6196.65
551.689331055,6610.3
551.973022461,7380.75
552.256652832,7603.3
552.540344238,7291.5
552.823974609,7231.35
553.107543945,7211.35
553.391174316,7376.025
553.674743652,7568.6
553.958251953,7596.65
554.241821289,7640.675
554.525268555,7436.55
554.808776855,7411.15
555.092285156,8065.65
555.375671387,8364.7
555.659057617,8338.525
555.942504883,8460.575
556.225891113,8582.05
556.509216309,8443.25
556.792541504,8138.9
557.075866699,8412.2
557.359130859,8528.5
557.64239502,8553.6
557.92565918,8778.35
558.208862305,8728.625
558.49206543,8489.25
558.77532959,8518.4
559.058410645,8713.45
559.341552734,8685.6
559.624694824,8852.325
559.907775879,9137.0
560.190856934,9545.6
560.473937988,9516.9
560.756896973,9640.0
561.039978027,9770.15
561.322937012,9594.925
561.605895996,9585.85
561.88885498,9456.325
562.171813965,9472.425
562.454650879,9417.5
562.737548828,9565.075
563.020446777,9827.775
563.303283691,9853.15
563.58605957,10009.2
563.868896484,10063.25
564.151672363,10239.25
564.434387207,10395.175
564.717163086,10266.55
564.99987793,10342.25
565.282531738,10575.225
565.565185547,10369.75
565.847839355,10398.525
566.130432129,10823.3
566.413085938,10763.9
566.695678711,10782.075
566.978149414,11171.25
567.260681152,11661.8
567.543273926,11925.575
567.825744629,11607.75
568.108154297,11721.275
568.390686035,12147.8
568.673095703,12527.0
568.955505371,12638.0
569.237854004,12730.85
569.520202637,13610.85
569.802490234,14288.925
570.084838867,14287.925
570.367126465,13728.15
570.649414062,13767.225
570.93170166,14877.65
571.213928223,15155.15
571.496154785,14398.95
571.778381348,15022.4
572.06048584,15846.325
572.342590332,14489.425
572.624755859,13342.35
572.906860352,13544.15
573.188903809,15592.25
573.470947266,16351.825
573.752990723,15703.0
574.03503418,15987.35
574.317016602,16383.75
574.598937988,16383.75
574.88092041,16177.35
575.162841797,16383.75
575.444763184,15678.05
575.726623535,14817.15
576.008483887,14945.525
576.290344238,16165.175
576.572143555,16383.75
576.853881836,16383.75
577.135681152,16383.75
577.417419434,16383.75
577.699157715,16383.75
577.980895996,16383.75
578.262573242,16383.75
578.544128418,16383.75
578.825866699,16376.425
579.107421875,15514.375
579.388977051,16000.775
579.670593262,16383.75
579.952148438,16383.75
580.233642578,16383.75
580.515197754,16383.75
580.796691895,16383.35
581.078125,16383.75
581.359619141,16383.75
581.640991211,16383.75
581.922363281,16383.75
582.203796387,16383.75
582.485107422,16383.75
582.766418457,16383.75
583.047790527,16383.75
583.329040527,16207.05
583.610290527,15802.65
583.891540527,16135.825
584.172790527,16383.75
584.453918457,16383.75
584.735107422,16383.75
585.016235352,16383.75
585.297363281,16383.75
585.578552246,16383.75
585.859619141,16383.75
586.140625,16383.75
586.421630859,16383.75
586.702697754,16383.75
586.983642578,16383.75
587.264648438,16383.75
587.545654297,16383.75
587.826477051,16383.75
588.107421875,16383.75
588.388305664,16383.75
588.669189453,16383.75
588.950012207,16383.75
589.230834961,16383.75
589.511657715,16383.75
589.792358398,16383.75
590.073120117,16383.75
590.353881836,16383.75
590.63458252,16383.75
590.915283203,16383.75
591.195922852,16383.75
591.4765625,16383.75
591.757202148,16383.75
592.037780762,16383.75
592.31829834,16383.75
592.598937988,16383.75
592.879394531,16383.75
593.159912109,16383.75
593.440429688,16383.75
593.720825195,16383.75
594.001281738,16383.75
594.281677246,16383.75
594.562072754,16383.75
594.842407227,16383.75
595.122802734,16383.75
595.403137207,16383.75
595.683410645,16383.75
595.963623047,16383.75
596.243896484,16383.75
596.524169922,16383.75
596.804382324,16383.75
597.084533691,16383.75
597.364746094,16383.75
597.644836426,16383.75
597.924987793,16383.75
598.205078125,16383.75
598.485107422,16383.75
598.765197754,16383.75
599.045227051,16383.75
599.325195312,16383.75
599.605224609,16383.75
599.885192871,16383.75
600.165100098,16383.75
600.445007324,16383.75
600.724914551,16383.75
601.004760742,16383.75
601.284667969,16383.75
601.56451416,16383.75
601.844238281,16383.75
602.124084473,16383.75
602.403808594,16383.75
602.683532715,16383.75
602.963256836,16383.75
603.242919922,16383.75
603.522583008,16383.75
603.802246094,16383.75
604.081848145,16383.75
604.36138916,16383.75
604.641052246,16383.75
604.920532227,16383.75
605.200073242,16383.75
605.479614258,16383.75
605.759094238,16383.75
606.038574219,16383.75
606.317932129,16383.75
606.597412109,16383.75
606.87677002,16383.75
607.15612793,16383.75
607.435546875,16383.75
607.714782715,16383.75
607.99407959,16383.75
608.273376465,16383.75
608.552612305,16383.75
608.831848145,16383.75
609.111083984,16383.75
609.390258789,16383.75
609.669433594,16383.75
609.948608398,16383.75
610.227722168,16383.75
610.506713867,16383.75
610.785888672,16383.75
611.064880371,16383.75
611.34387207,16383.75
611.622924805,16383.75
611.901916504,16383.75
612.180847168,16383.75
612.459777832,16383.75
612.738647461,16383.75
613.01751709,16383.75
613.296447754,16383.75
613.575317383,16383.75
613.854064941,16383.75
614.132873535,16383.75
614.411621094,16383.75
614.690368652,16383.75
614.969177246,16383.75
615.247802734,16383.75
615.526489258,16383.75
615.805175781,16383.75
616.08380127,16383.75
616.362365723,16339.45
616.640991211,16162.5
616.919555664,16030.625
617.198059082,16374.625
617.4765625,16383.75
617.755126953,16383.75
618.033569336,16383.75
618.311950684,16383.75
618.590454102,16383.75
618.868774414,16383.75
619.147155762,16383.75
619.425598145,16383.75
619.703857422,16383.75
619.982177734,16383.75
620.260498047,16383.75
620.538757324,16383.75
620.816955566,16383.75
621.095214844,16383.75
621.373413086,16383.75
621.651550293,16383.75
621.929748535,16383.75
622.207824707,16383.75
622.485900879,16383.75
622.764038086,16383.75
623.042053223,16383.75
623.320007324,16383.75
623.598083496,16383.75
623.876037598,16383.75
624.153991699,16383.75
624.432006836,16383.75
624.709838867,16383.75
624.987731934,16383.75
625.265563965,16383.75
625.543395996,16383.75
625.821228027,16383.75
626.098999023,16383.75
626.376831055,16383.75
626.654541016,16383.75
626.932250977,16383.75
627.209960938,16383.75
627.487670898,16383.75
627.765319824,16383.75
628.04296875,16383.75
628.320495605,16383.75
628.598083496,16383.75
628.875671387,16383.75
629.153259277,16383.75
629.430725098,16383.75
629.708251953,16383.75
629.985656738,16383.75
630.263122559,16383.75
630.540588379,16383.75
630.817932129,16383.75
631.095275879,16383.75
631.372680664,16383.75
631.649963379,16383.75
631.927246094,16383.75
632.204589844,16383.75
632.481811523,16383.75
632.759033203,16383.75
633.036254883,16383.75
633.313415527,16383.75
633.590576172,16383.75
633.867736816,16383.75
634.144836426,16383.75
634.421875,16383.75
634.698913574,16383.75
634.976013184,16383.75
635.252990723,16383.75
635.529968262,16383.75
635.807006836,16383.75
636.08392334,16383.75
636.360839844,16383.75
636.637756348,16383.75
636.914611816,16383.75
637.191467285,16383.75
637.468261719,16383.75
637.745056152,16383.75
638.021789551,16383.75
638.298583984,16383.75
638.575317383,16383.75
638.851989746,16383.75
639.12878418,16383.75
639.405395508,16383.75
639.682006836,16383.75
639.958618164,16383.75
640.235229492,16383.75
640.511779785,16383.75
640.788330078,16383.75
641.064880371,16383.75
641.341308594,16383.75
641.617797852,16383.75
641.894226074,16383.75
642.170654297,16383.75
642.44708252,16383.75
642.723388672,16383.75
642.999755859,16383.75
643.276123047,16383.75
643.552429199,16383.75
643.828674316,16383.75
644.104919434,16383.75
644.381164551,16383.75
644.657348633,16383.75
644.933532715,16383.75
645.209716797,16383.75
645.485839844,16383.75
645.761901855,16383.75
646.038024902,16383.75
646.314086914,16383.75
646.590087891,16383.75
646.866149902,16383.75
647.142150879,16383.75
647.41809082,16383.75
647.694030762,16383.75
647.969970703,16383.75
648.245788574,16383.75
648.521728516,16383.75
648.797546387,16383.75
649.073303223,16383.75
649.349182129,16383.75
649.624938965,16383.75
649.900634766,16383.75
650.176391602,16383.75
650.452087402,16383.75
650.727783203,16383.75
651.003479004,16383.75
651.279052734,16383.75
651.554626465,16383.75
651.83026123,16383.75
652.105773926,16383.75
652.381286621,16383.75
652.656860352,16383.75
652.932312012,16383.75
653.207763672,16383.75
653.483215332,16383.75
653.758605957,16383.75
654.033935547,16383.75
654.309326172,16383.75
654.584716797,16383.75
654.859985352,16383.75
655.135253906,16383.75
655.410583496,16383.75
655.685791016,16383.75
655.9609375,16383.75
656.236206055,16383.75
656.511291504,16383.75
656.786437988,16383.75
657.061645508,16383.75
657.336669922,16383.75
657.611694336,16383.75
657.886779785,16383.75
658.161804199,16383.75
658.436828613,16383.75
658.711791992,16383.75
658.986755371,16383.75
659.261657715,16383.75
659.536621094,16383.75
659.811401367,16383.75
660.086303711,16383.75
660.36114502,16383.75
660.635864258,16383.75
660.910644531,16383.75
661.185424805,16383.75
661.460205078,16383.75
661.734863281,16383.75
662.009521484,16383.75
662.284179688,16383.75
662.558776855,16383.75
662.833435059,16383.75
663.108032227,16383.75
663.382568359,16383.75
663.657043457,16383.75
663.93157959,16383.75
664.206054688,16383.75
664.48046875,16383.75
664.755004883,16383.75
665.02935791,16383.75
665.303710938,16383.75
665.578125,16383.75
665.852416992,16383.75
666.126708984,16383.75
666.401062012,16383.75
666.675292969,16383.75
666.949462891,16383.75
667.223754883,16383.75
667.497924805,16383.75
667.772094727,16383.75
668.046264648,16383.75
668.3203125,16383.75
668.594421387,16383.75
668.868469238,16383.75
669.14251709,16383.75
669.416503906,16383.75
669.690551758,16383.75
669.964477539,16383.75
670.23840332,16383.75
670.512329102,16383.75
670.786254883,16383.75
671.060058594,16383.75
671.333984375,16383.75
671.607788086,16383.75
671.881530762,16383.75
672.155334473,16383.75
672.429077148,16383.75
672.702758789,16383.75
672.97644043,16383.75
673.25012207,16383.75
673.523742676,16383.75
673.797302246,16383.75
674.070922852,16383.75
674.344482422,16383.75
674.618041992,16383.75
674.891601562,16383.75
675.165100098,16383.75
675.438476562,16383.75
675.711975098,16383.75
675.985412598,16383.75
676.258789062,16383.75
676.532165527,16383.75
676.805480957,16383.75
677.078796387,16383.75
677.352111816,16383.75
677.625366211,16383.75
677.898620605,16383.75
678.171875,16383.75
678.445007324,16383.75
678.718200684,16383.75
678.991394043,16383.75
679.264404297,16383.75
679.537536621,16383.75
679.81060791,16383.75
680.083679199,16383.75
680.356689453,16383.75
680.629699707,16383.75
680.902648926,16383.75
681.175598145,16383.75
681.448547363,16383.75
681.721435547,16383.75
681.99420166,16383.75
682.267150879,16383.75
682.539916992,16383.75
682.812744141,16383.75
683.085510254,16383.75
683.358215332,16383.75
683.63092041,16383.75
683.903625488,16383.75
684.176330566,16383.75
684.448913574,16383.75
684.721557617,16383.75
684.99420166,16383.75
685.266662598,16383.75
685.539245605,16383.75
685.811767578,16383.75
686.084289551,16383.75
686.356689453,16383.75
686.629150391,16383.75
686.901550293,16383.75
687.17401123,16383.75
687.446350098,16383.75
687.718688965,16383.75
687.990966797,16383.75
688.263305664,16383.75
688.535522461,16383.75
688.807739258,16383.75
689.079956055,16383.75
689.352172852,16383.75
689.624328613,16383.75
689.896484375,16383.75
690.168518066,16383.75
690.440612793,16383.75
690.71270752,16383.75
690.984741211,16383.75
691.256713867,16383.75
691.528747559,16383.75
691.800720215,16383.75
692.072631836,16383.75
692.344543457,16383.75
692.616394043,16383.75
692.888244629,16383.75
693.160095215,16383.75
693.431945801,16383.75
693.703674316,16383.75
693.975463867,16383.75
694.247131348,16383.75
694.518859863,16383.75
694.790588379,16383.75
695.062255859,16383.75
695.33380127,16383.75
695.60546875,16383.75
695.87701416,16383.75
696.148498535,16383.75
696.42010498,16383.75
696.691589355,16383.75
696.96307373,16383.75
697.234558105,16383.75
697.50592041,16383.75
697.777282715,16383.75
698.048706055,16383.75
698.320068359,16383.75
698.591308594,16383.75
698.862670898,16383.75
699.133972168,16383.75
699.405151367,16383.75
699.676391602,16383.75
699.947570801,16383.75
700.21875,16383.75
700.489868164,16383.75
700.761047363,16383.75
701.032104492,16383.75
701.303100586,16383.75
701.57421875,16383.75
701.845214844,16383.75
702.116149902,16383.75
702.387207031,16383.75
702.65814209,16383.75
702.928955078,16383.75
703.199951172,16383.75
703.47076416,16383.75
703.741577148,16383.75
704.012451172,16383.75
704.28314209,16383.75
704.553955078,16383.75
704.824707031,16383.75
705.095397949,16383.75
705.366027832,16383.75
705.63671875,16383.75
705.907348633,16383.75
706.17791748,16383.75
706.448486328,16383.75
706.719055176,16383.75
706.989562988,16383.75
707.260131836,16383.75
707.530517578,16383.75
707.800964355,16383.75
708.071411133,16383.75
708.341796875,16383.75
708.612182617,16383.75
708.882446289,16383.75
709.152893066,16383.75
709.423156738,16383.75
709.693359375,16383.75
709.963623047,16383.75
710.233825684,16383.75
710.503967285,16383.75
710.774169922,16383.75
711.044311523,16383.75
711.31439209,16383.75
711.584533691,16383.75
711.854553223,16383.75
712.124572754,16383.75
712.39465332,16383.75
712.664611816,16383.75
712.934509277,16383.75
713.204467773,16383.75
713.474365234,16383.75
713.74420166,16383.75
714.014099121,16383.75
714.283874512,16383.75
714.553710938,16383.75
714.823486328,16383.75
715.093200684,16383.75
715.362915039,16383.75
715.632629395,16383.75
715.902282715,16383.75
716.171875,16383.75
716.441589355,16383.75
716.711181641,16383.75
716.980712891,16383.75
717.250244141,16383.75
717.519775391,16383.75
717.78918457,16383.75
718.058654785,16383.75
718.328125,16383.75
718.597473145,16383.75
718.866882324,16383.75
719.136230469,16383.75
719.405578613,16383.75
719.674865723,16383.75
719.944152832,16383.75
720.213439941,16383.75
720.48260498,16383.75
720.75177002,16383.75
721.020996094,16383.75
721.290100098,16383.75
721.559204102,16383.75
721.828308105,16383.75
722.097351074,16383.75
722.366455078,16383.75
722.635437012,16383.75
722.904418945,16383.75
723.173400879,16383.75
723.442321777,16383.75
723.711181641,16383.75
723.980102539,16383.75
724.248962402,16383.75
724.51776123,16383.75
724.786560059,16383.75
725.055358887,16383.75
725.324035645,16383.75
725.592834473,16383.75
725.86151123,16383.75
726.130187988,16383.75
726.398803711,16383.75
726.667419434,16383.75
726.935974121,16383.75
727.204528809,16383.75
727.473083496,16383.75
727.741638184,16383.75
728.010070801,16383.75
728.278564453,16383.75
728.546936035,16383.75
728.815368652,16383.75
729.08380127,16383.75
729.352111816,16383.75
729.620361328,16383.75
729.88873291,16383.75
730.156982422,16383.75
730.425231934,16383.75
730.693481445,16383.75
730.961669922,16383.75
731.229797363,16383.75
731.49798584,16383.75
731.766113281,16383.75
732.034118652,16383.75
732.302246094,16383.75
732.570251465,16383.75
732.838256836,16383.75
733.106262207,16383.75
733.374145508,16383.75
733.642089844,16383.75
733.909973145,16383.75
734.177856445,16383.75
734.445678711,16383.75
734.713562012,16383.75
734.981323242,16383.75
735.249084473,16383.75
735.516845703,16383.75
735.784545898,16383.75
736.052185059,16383.75
736.319885254,16383.75
736.587524414,16383.75
736.855102539,16383.75
737.122619629,16383.75
737.390197754,16383.75
737.657714844,16383.75
737.925170898,16383.75
738.192749023,16383.75
738.460144043,16383.75
738.727539062,16383.75
738.994995117,16383.75
739.262329102,16383.75
739.529663086,16383.75
739.79699707,16383.75
740.06427002,16383.75
740.331481934,16383.75
740.598754883,16383.75
740.865905762,16383.75
741.133056641,16383.75
741.40032959,16383.75
741.667358398,16383.75
741.934448242,16383.75
742.201599121,16383.75
742.468566895,16383.75
742.735534668,16383.75
743.002563477,16383.75
743.26953125,16383.75
743.536437988,16383.75
743.803405762,16383.75
744.0703125,16383.75
744.337097168,16383.75
744.604003906,16383.75
744.870727539,16383.75
745.137512207,16383.75
745.40423584,16383.75
745.670959473,16383.75
745.93762207,16383.75
746.204284668,16383.75
746.470947266,16383.75
746.737548828,16383.75
747.004089355,16383.75
747.270751953,16383.75
747.53717041,16383.75
747.803710938,16383.75
748.070251465,16383.75
748.336608887,16383.75
748.603027344,16383.75
748.869445801,16383.75
749.135803223,16383.75
749.402099609,16383.75
749.668457031,16383.75
749.934753418,16383.75
750.20098877,16383.75
750.467224121,16383.75
750.733459473,16383.75
750.999572754,16383.75
751.26574707,16383.75
751.531860352,16383.75
751.797912598,16383.75
752.064025879,16383.75
752.330078125,16383.75
752.596069336,16383.75
752.862060547,16383.75
753.127990723,16383.75
753.393920898,16383.75
753.659912109,16383.75
753.925720215,16383.75
754.19152832,16383.75
754.457397461,16383.75
754.723144531,16383.75
754.988952637,16383.75
755.254699707,16383.75
755.520385742,16383.75
755.786071777,16383.75
756.051696777,16383.75
756.317382812,16383.75
756.582946777,16383.75
756.848510742,16383.75
757.114074707,16383.75
757.379577637,16383.75
757.645080566,16383.75
757.910583496,16383.75
758.175964355,16383.75
758.441345215,16383.75
758.706848145,16383.75
758.972106934,16383.75
759.237426758,16383.75
759.502807617,16383.75
759.768005371,16383.75
760.03326416,16383.75
760.298522949,16383.75
760.563659668,16383.75
760.828857422,16383.75
761.093994141,16383.75
761.359130859,16383.75
761.624206543,16383.75
761.889282227,16383.75
762.15423584,16383.75
762.419250488,16383.75
762.684265137,16383.75
762.949157715,16383.75
763.214050293,16383.75
763.479003906,16383.75
763.743835449,16383.75
764.008666992,16383.75
764.2734375,16383.75
764.538208008,16383.75
764.802978516,16383.75
765.067687988,16383.75
765.332397461,16383.75
765.597045898,16383.75
765.861694336,16383.75
766.126342773,16383.75
766.390930176,16383.75
766.655395508,16383.75
766.920043945,16383.75
767.184509277,16383.75
767.448974609,16383.75
767.713439941,16383.75
767.977783203,16383.75
768.2421875,16383.75
768.506591797,16383.75
768.770874023,16383.75
769.03515625,16383.75
769.299499512,16383.75
769.563720703,16383.75
769.827941895,16383.75
770.092163086,16383.75
770.356323242,16383.75
770.620483398,16383.75
770.88458252,16383.75
771.148681641,16383.75
771.412719727,16383.75
771.676757812,16383.75
771.940734863,16383.75
772.204711914,16383.75
772.468688965,16383.75
772.73260498,16383.75
772.996459961,16383.75
773.260314941,16383.75
773.524169922,4866.025
773.787963867,259.525
774.051696777,115.75
774.315551758,107.3
774.579223633,108.525
774.842895508,107.075
775.106567383,108.4
775.370239258,104.6
775.633789062,108.65
775.897399902,111.975
776.160949707,102.425
776.424499512,106.925
776.687988281,109.85
776.951477051,110.35
777.214904785,107.875
777.47833252,107.85
