191.299911499,79.975
191.603515625,84.525
191.907119751,75.225
192.210693359,86.15
192.514251709,79.4
192.817810059,85.3
193.121368408,82.1
193.42489624,84.9
193.728408813,77.825
194.031936646,77.375
194.33543396,73.05
194.638916016,91.625
194.94241333,77.275
195.245880127,79.275
195.549331665,75.75
195.852767944,91.3
196.156204224,409.325
196.459625244,412.325
196.763015747,417.6
197.066436768,428.8
197.369812012,419.05
197.673187256,419.325
197.9765625,424.9
198.279922485,424.75
198.583251953,421.175
198.886581421,424.225
199.18989563,437.925
199.493209839,438.175
199.79649353,436.6
200.09979248,454.95
200.403076172,451.175
200.706314087,474.575
201.009567261,481.35
201.312820435,492.2
201.616027832,489.3
201.919235229,501.425
202.222457886,523.125
202.525634766,545.175
202.828826904,554.95
203.132003784,576.625
203.435150146,592.7
203.738296509,605.325
204.041412354,619.625
204.344558716,639.925
204.647659302,648.3
204.950759888,653.3
205.253845215,661.8
205.556930542,657.825
205.859985352,667.125
206.163024902,668.2
206.466079712,699.825
206.769104004,730.975
207.072113037,745.4
207.375137329,746.025
207.678131104,767.35
207.981109619,788.425
208.284088135,794.675
208.587036133,824.975
208.889984131,833.725
209.19291687,859.125
209.495849609,874.825
209.798751831,885.2
210.101654053,910.975
210.404556274,941.875
210.707427979,987.2
211.010269165,1053.225
211.31312561,1132.125
211.615982056,1214.825
211.918807983,1302.925
212.221618652,1401.975
212.524429321,1514.375
212.827224731,1629.2
213.130004883,1734.3
213.432769775,1861.0
213.735534668,1972.6
214.038269043,2098.45
214.341003418,2219.525
214.643737793,2318.125
214.946456909,2394.15
215.249145508,2473.725
215.551834106,2455.7
215.854507446,2397.5
216.157165527,2251.2
216.45980835,2062.775
216.762451172,1802.8
217.065078735,1522.8
217.36769104,1298.0
217.670303345,1255.95
217.972885132,1484.35
218.275466919,1971.425
218.578048706,2573.05
218.880599976,3208.75
219.183120728,3802.0
219.485656738,4309.575
219.788192749,4762.025
220.090682983,5139.225
220.393188477,5496.6
220.695663452,5778.9
220.998138428,5965.975
221.300582886,6211.675
221.603042603,6350.75
221.905487061,6526.05
222.207901001,6695.025
222.510299683,6801.95
222.812728882,6985.675
223.115097046,7108.925
223.41746521,7250.85
223.719848633,7401.55
224.022171021,7538.425
224.324508667,7683.9
224.626846313,7909.0
224.929168701,8036.675
225.231460571,8228.4
225.533737183,8425.25
225.836013794,8577.975
226.138290405,8734.875
226.440536499,8935.775
226.742767334,9034.175
227.044998169,9181.325
227.347213745,9386.675
227.649429321,9512.9
227.951629639,9622.675
228.253799438,9725.65
228.555953979,9862.375
228.858123779,10027.05
229.160263062,10141.05
229.462371826,10252.525
229.764511108,10366.75
230.066619873,10491.4
230.36869812,10603.925
230.670776367,10722.9
230.972854614,10959.95
231.274902344,11142.75
231.576950073,11309.0
231.878967285,11445.4
232.180999756,11689.7
232.48298645,11831.0
232.784988403,12100.925
233.086975098,12251.275
233.388946533,12433.05
233.69090271,12672.8
233.992858887,12866.1
234.294769287,12965.125
234.596694946,13126.95
234.898605347,13385.675
235.200500488,13438.025
235.502380371,13534.975
235.804244995,13673.85
236.106109619,13739.3
236.407958984,13817.6
236.709777832,13973.25
237.011581421,14065.85
237.313400269,14113.5
237.615203857,14153.75
237.916976929,14297.475
238.21875,14321.5
238.520507812,14387.65
238.822250366,14469.8
239.12399292,14535.55
239.425704956,14646.275
239.727401733,14632.975
240.02911377,14712.5
240.330780029,14668.375
240.632446289,14733.575
240.93409729,14819.475
241.23576355,14874.25
241.537384033,14971.075
241.839004517,15039.45
242.140594482,15102.225
242.442199707,15227.425
242.743774414,15252.875
243.045333862,15331.525
243.346923828,15365.8
243.648452759,15446.4
243.949966431,15424.8
244.251495361,15503.25
244.552993774,15496.025
244.854492188,15385.4
245.155975342,15424.7
245.457443237,15498.625
245.758880615,15409.6
246.060333252,15369.075
246.36177063,15303.225
246.66317749,15262.3
246.964569092,15235.6
247.265945435,15090.95
247.567337036,15139.425
247.86869812,15131.075
248.170059204,15105.95
248.471389771,15089.175
248.772705078,15138.375
249.074035645,15177.15
249.375335693,15175.275
249.676620483,15213.65
249.977890015,15329.675
250.279159546,15407.325
250.58039856,15546.925
250.881637573,15631.8
251.182876587,15691.975
251.484069824,15891.4
251.785263062,15999.6
252.086456299,16186.85
252.387619019,16278.85
252.688781738,16327.675
252.989929199,16383.75
253.291061401,16383.75
253.592178345,16383.75
253.893280029,16383.75
254.194366455,16383.75
254.49546814,16383.75
254.796524048,16383.75
255.097579956,16383.75
255.398620605,16383.75
255.699645996,16383.75
256.000640869,16383.75
256.30166626,16383.75
256.602661133,16383.75
256.903656006,16383.75
257.204589844,16383.75
257.505523682,16383.75
257.80645752,16383.75
258.107391357,16383.75
258.408294678,16383.75
258.709228516,16383.75
259.010070801,16383.75
259.310943604,16383.75
259.611846924,16383.75
259.912658691,16383.75
260.213500977,16383.75
260.514343262,16383.75
260.815124512,16380.775
261.115936279,16341.125
261.416717529,16340.125
261.717468262,16218.425
262.018218994,16094.225
262.318969727,16040.25
262.619689941,16096.0
262.920410156,16132.375
263.221130371,16206.525
263.521789551,16245.0
263.822479248,16303.75
264.123138428,16365.85
264.42376709,16373.55
264.72442627,16370.475
265.025054932,16341.05
265.325622559,16337.15
265.626251221,16295.125
265.926818848,16188.575
266.227386475,16015.625
266.527954102,15949.55
266.828460693,15935.625
267.12902832,15685.475
267.429534912,15559.025
267.730010986,15427.4
268.030517578,15267.8
268.330993652,15191.85
268.631439209,15061.175
268.931915283,14985.825
269.232299805,14860.075
269.532745361,14774.7
269.8331604,14587.225
270.133544922,14535.5
270.433929443,14534.625
270.734313965,14451.075
271.034637451,14458.95
271.334991455,14354.45
271.635314941,14441.375
271.935638428,14421.625
272.235931396,14490.975
272.536254883,14563.4
272.836486816,14669.4
273.136749268,14770.525
273.437011719,14976.75
273.737213135,15144.85
274.037445068,15313.475
274.337677002,15506.675
274.6378479,15645.325
274.938049316,15913.775
275.238220215,16073.975
275.538360596,16315.25
275.838500977,16380.1
276.138641357,16383.75
276.438751221,16383.75
276.738830566,16383.75
277.03894043,16383.75
277.338989258,16383.75
277.639038086,16383.75
277.939056396,16383.75
278.239105225,16383.75
278.539093018,16383.75
278.839141846,16383.75
279.139129639,16383.75
279.439086914,16383.75
279.739044189,16383.75
280.039001465,16383.75
280.338928223,16383.75
280.63885498,16383.75
280.938781738,16383.75
281.238647461,16383.75
281.538513184,16383.75
281.838409424,16383.75
282.138244629,16383.75
282.438079834,16383.75
282.737945557,16383.75
283.037719727,16383.75
283.337524414,16383.75
283.637298584,16383.75
283.937072754,16383.75
284.236816406,16383.75
284.536560059,16383.75
284.836303711,16383.75
285.136016846,16383.75
285.43572998,16383.75
285.735412598,16383.75
286.035064697,16383.75
286.334747314,16383.75
286.634368896,16383.75
286.933990479,16383.75
287.233642578,16383.75
287.533203125,16383.75
287.832824707,16383.75
288.132385254,16383.75
288.431945801,16383.75
288.731506348,16383.75
289.031036377,16383.75
289.330566406,16383.75
289.630065918,16383.75
289.92956543,16383.75
290.229034424,16383.75
290.528503418,16383.75
290.827941895,16383.75
291.127380371,16383.75
291.42678833,16383.75
291.726226807,16383.75
292.025604248,16383.75
292.324981689,16383.75
292.624359131,16383.75
292.923736572,16383.75
293.223052979,16383.75
293.522369385,16383.75
293.821685791,16383.75
294.12097168,16383.75
294.420257568,16383.75
294.719543457,16383.75
295.018768311,16383.75
295.318023682,16383.75
295.617248535,16383.75
295.916442871,16383.75
296.215667725,16383.75
296.514862061,16383.75
296.813995361,16383.75
297.11315918,16383.75
297.412322998,16383.75
297.711425781,16383.75
298.010559082,16383.75
298.309631348,16383.75
298.608734131,16383.75
298.907806396,16383.75
299.206848145,16383.75
299.505889893,16383.75
299.804901123,16383.75
300.103912354,16383.75
300.402954102,16383.75
300.701904297,16383.75
301.00088501,16383.75
301.299835205,16383.75
301.5987854,16383.75
301.897735596,16383.75
302.196624756,16383.75
302.495513916,16383.75
302.794403076,16383.75
303.093292236,16383.75
303.392120361,16383.75
303.690979004,16383.75
303.989837646,16383.75
304.288604736,16383.75
304.587402344,16383.75
304.886199951,16383.75
305.184967041,16383.75
305.483734131,16383.75
305.782501221,16383.75
306.081176758,16383.75
306.37991333,16383.75
306.678619385,16383.75
306.977294922,16383.75
307.275970459,16383.75
307.574645996,16383.75
307.873260498,16383.75
308.171875,16383.75
308.470489502,16383.75
308.769104004,16383.75
309.067687988,16383.75
309.366241455,16383.75
309.664794922,16383.75
309.963348389,16383.75
310.261871338,16383.75
310.560394287,16383.75
310.858856201,16383.75
311.157348633,16383.75
311.455810547,16383.75
311.754272461,16383.75
312.052703857,16383.75
312.351135254,16383.75
312.649536133,16383.75
312.947937012,16383.75
313.246307373,16383.75
313.544647217,16383.75
313.843017578,16383.75
314.141387939,16383.75
314.439697266,16383.75
314.738006592,16383.75
315.036315918,16383.75
315.334564209,16383.75
315.6328125,16383.75
315.931091309,16383.75
316.229309082,16383.75
316.527526855,16383.75
316.825744629,16383.75
317.123901367,16383.75
317.422088623,16383.75
317.720245361,16383.75
318.0184021,16383.75
318.316497803,16383.75
318.614654541,16383.75
318.912750244,16383.75
319.21081543,16383.75
319.50894165,16383.75
319.806945801,16383.75
320.104980469,16383.75
320.403045654,16383.75
320.701049805,16383.75
320.999023438,16383.75
321.297027588,16383.75
321.595001221,16383.75
321.892913818,16383.75
322.190887451,16383.75
322.488830566,16383.75
322.786712646,16383.75
323.084625244,16383.75
323.382507324,16383.75
323.680358887,16383.75
323.978210449,16383.75
324.276062012,16383.75
324.573852539,16383.75
324.871643066,16383.75
325.169464111,16383.75
325.467224121,16383.75
325.764984131,16383.75
326.062744141,16383.75
326.360473633,16383.75
326.658203125,16383.75
326.955871582,16383.75
327.253570557,16383.75
327.551239014,16383.75
327.848907471,16383.75
328.146514893,16383.75
328.444152832,16383.75
328.741790771,16383.75
329.039367676,16383.75
329.336914062,16383.75
329.634521484,16383.75
329.932067871,16383.75
330.229553223,16383.75
330.527160645,16383.75
330.824615479,16383.75
331.12210083,16383.75
331.419586182,16380.775
331.717041016,16359.2
332.014465332,16179.55
332.311920166,16095.6
332.609313965,15963.2
332.906707764,16005.875
333.204101562,15968.2
333.501495361,15953.975
333.798828125,16123.85
334.096160889,16187.025
334.39352417,16327.55
334.690795898,16379.375
334.988098145,16383.75
335.285400391,16383.75
335.582641602,16383.75
335.879882812,16383.75
336.177124023,16383.75
336.474334717,16383.75
336.77154541,16383.75
337.068725586,16383.75
337.365905762,16383.75
337.66305542,16383.75
337.960205078,16383.75
338.257324219,16383.75
338.554443359,16383.75
338.8515625,16383.75
339.148590088,16383.75
339.445648193,16383.75
339.742736816,16383.75
340.039764404,16383.75
340.336761475,16383.75
340.63381958,16383.75
340.930755615,16383.75
341.227722168,16383.75
341.524688721,16383.75
341.821624756,16383.75
342.118560791,16383.75
342.415496826,16383.75
342.712402344,16383.75
343.009246826,16383.75
343.306121826,16383.75
343.602966309,16383.75
343.899810791,16383.75
344.196624756,16383.75
344.493438721,16383.75
344.79019165,16383.75
345.086975098,16383.75
345.383758545,16383.75
345.680480957,16383.75
345.977203369,16383.75
346.273956299,16383.75
346.570617676,16383.75
346.86730957,16383.75
347.163970947,16383.75
347.460601807,16383.75
347.757232666,16383.75
348.053894043,16383.75
348.350463867,16383.75
348.647064209,16383.75
348.943634033,16383.75
349.24017334,16383.75
349.536712646,16383.75
349.833251953,16383.75
350.129760742,16383.75
350.426208496,16383.75
350.722747803,16383.75
351.019195557,16383.75
351.315612793,16383.75
351.612060547,16383.75
351.908508301,16383.75
352.204864502,16383.75
352.501281738,16383.75
352.797637939,16383.75
353.093963623,16383.75
353.390319824,16383.75
353.686645508,16383.75
353.982940674,16383.75
354.27923584,16383.75
354.575531006,16383.75
354.871765137,16383.75
355.167999268,16383.75
355.464233398,16383.75
355.760437012,16383.75
356.056640625,16383.75
356.352813721,16383.75
356.648956299,16383.75
356.945129395,16383.75
357.241271973,16383.75
357.537384033,16383.75
357.833496094,16383.75
358.129577637,16383.75
358.425628662,16383.75
358.721679688,16383.75
359.017730713,16383.75
359.313720703,16383.75
359.609710693,16383.75
359.905761719,16383.75
360.201721191,16381.675
360.497650146,16329.575
360.793609619,16275.1
361.089538574,16077.325
361.385437012,15877.725
361.681365967,15777.4
361.977233887,15736.425
362.273071289,15535.7
362.568908691,15303.05
362.864746094,15000.2
363.160552979,14694.275
363.456359863,14251.55
363.752166748,13891.725
364.047912598,13685.825
364.343658447,13551.875
364.639434814,13661.9
364.935119629,13775.375
365.230834961,13955.9
365.526550293,14031.45
365.822174072,14076.0
366.117858887,14148.05
366.413482666,14240.325
366.709075928,14310.225
367.004730225,14078.7
367.300292969,14034.525
367.595855713,14210.45
367.891448975,13893.35
368.186981201,13678.0
368.482513428,13563.05
368.778015137,13507.975
369.073547363,13417.0
369.36895752,13464.175
369.664428711,13187.875
369.95993042,12915.3
370.255310059,12742.475
370.550720215,12710.8
370.846160889,12604.975
371.14151001,12513.875
371.436859131,12454.65
371.73223877,12384.975
372.027557373,12307.4
372.322875977,12164.125
372.618164062,12071.65
372.913482666,11979.775
373.208709717,11913.375
373.503967285,11784.25
373.799194336,11671.75
374.094421387,11663.775
374.389648438,11607.55
374.684844971,11571.025
374.979980469,11701.05
375.275146484,11757.425
375.570281982,11832.5
375.865386963,11841.625
376.160522461,11662.75
376.455596924,11710.55
376.750640869,11986.05
377.045715332,12028.475
377.340759277,12115.575
377.635772705,12280.15
377.93081665,12420.55
378.225769043,12565.5
378.520751953,12766.325
378.815734863,12661.125
379.110656738,13099.325
379.405548096,13581.125
379.700500488,13151.4
379.995391846,12580.3
380.290252686,12723.275
380.585083008,13016.45
380.879974365,13136.65
381.17477417,12881.675
381.469543457,12767.775
381.764404297,12725.975
382.059143066,12766.675
382.353912354,13076.575
382.648651123,13316.825
382.943389893,13241.8
383.238067627,12813.975
383.532775879,12787.225
383.827484131,12645.975
384.12210083,12639.55
384.416778564,12469.675
384.711425781,12229.875
385.006011963,12287.975
385.300628662,12256.725
385.595184326,12505.375
385.88973999,12770.25
386.184295654,13106.975
386.478820801,13302.725
386.77331543,13578.3
387.067840576,13883.35
387.362335205,14133.85
387.656768799,14318.35
387.951202393,14408.075
388.245635986,14598.475
388.540039062,14844.35
388.834472656,15011.65
389.128875732,14750.75
389.423187256,14125.475
389.717559814,13987.4
390.011871338,14268.45
390.306182861,14386.475
390.600463867,14400.325
390.894775391,14622.25
391.189025879,14712.15
391.48324585,14698.225
391.777526855,14851.8
392.071685791,15373.8
392.365875244,15691.175
392.660064697,15829.65
392.95425415,16383.75
393.248382568,16383.75
393.542510986,15485.575
393.836608887,14995.125
394.130706787,14966.2
394.424804688,14826.175
394.71887207,15154.275
395.012878418,15092.05
395.306915283,14796.875
395.600921631,14637.725
395.894927979,14562.225
396.188903809,14674.3
396.482879639,14760.05
396.776794434,15292.65
397.070739746,15192.425
397.364654541,15252.6
397.658538818,16255.425
397.952423096,16336.15
398.246307373,16238.0
398.540100098,16383.75
398.833953857,16383.75
399.127746582,16066.0
399.421508789,16068.85
399.715301514,15932.125
400.009063721,15740.925
400.30279541,15296.875
400.596496582,15096.05
400.890258789,15561.5
401.183929443,15796.5
401.47756958,15483.3
401.771240234,14838.3
402.064880371,14905.2
402.35848999,15045.825
402.652130127,14760.675
402.945678711,15004.125
403.239257812,14796.475
403.532775879,14676.875
403.82635498,14833.35
404.119842529,14591.675
404.413360596,14534.175
404.706848145,14757.4
405.000274658,14550.825
405.293762207,14768.45
405.587188721,14936.35
405.880584717,14517.45
406.17401123,13976.775
406.467407227,13444.725
406.760742188,13458.125
407.054107666,13568.775
407.347442627,13354.875
407.640716553,13369.675
407.934051514,13523.25
408.227325439,13736.2
408.520568848,14353.3
408.813842773,14590.125
409.107086182,14011.775
409.400238037,13909.825
409.693450928,13710.0
409.986633301,14089.1
410.279754639,13812.275
410.572875977,12992.5
410.86605835,12787.05
411.159118652,12862.2
411.452209473,12909.95
411.745330811,12494.425
412.038360596,12259.4
412.331390381,12377.175
412.624420166,12496.175
412.917388916,12211.925
413.210388184,11653.025
413.503387451,11568.6
413.796295166,11301.05
414.089233398,10738.2
414.382141113,10520.975
414.675048828,10484.775
414.967926025,10625.575
415.260803223,10472.775
415.55368042,10520.425
415.846466064,10402.125
416.139282227,10677.275
416.432098389,11055.375
416.724853516,11040.8
417.017608643,10886.6
417.31036377,10940.95
417.603088379,11336.975
417.895782471,11237.5
418.188476562,11142.525
418.481140137,11344.05
418.773803711,11542.625
419.066436768,11465.95
419.359039307,11652.775
419.651641846,11697.8
419.944244385,11678.625
420.236816406,11569.275
420.529327393,12219.075
420.821899414,12423.125
421.114379883,12171.625
421.406860352,12982.175
421.699371338,13659.3
421.991821289,13486.05
422.284240723,12896.6
422.576721191,12413.8
422.869110107,12078.45
423.161468506,11916.725
423.453857422,12000.075
423.74621582,11619.475
424.038543701,11187.025
424.330871582,11117.95
424.623168945,10862.875
424.915435791,11280.275
425.207702637,11146.175
425.499969482,10986.725
425.792205811,10767.475
426.084411621,10046.825
426.376617432,10295.475
426.668762207,10492.1
426.9609375,10122.125
427.253082275,10480.25
427.545196533,11719.0
427.837310791,10919.3
428.129425049,10015.575
428.421447754,10676.225
428.713531494,10715.175
429.005554199,10693.1
429.297576904,10709.0
429.589599609,12001.775
429.881561279,12995.925
430.173522949,12336.525
430.465484619,12196.95
430.757415771,12401.625
431.049316406,11749.8
431.341186523,11038.45
431.633117676,10704.175
431.924957275,9762.65
432.21673584,9425.55
432.508636475,9846.25
432.800415039,9972.2
433.092163086,9598.875
433.383972168,9560.7
433.675689697,11770.475
433.967437744,13272.9
434.259155273,10379.725
434.550872803,9325.575
434.842498779,9529.625
435.134185791,9924.875
435.425842285,10011.175
435.717437744,9696.775
436.009063721,9138.95
436.30065918,9524.425
436.592224121,10628.575
436.883758545,10038.325
437.175323486,9167.55
437.466827393,9115.625
437.758331299,9213.0
438.049804688,9272.75
438.341247559,9477.5
438.63269043,9734.95
438.924163818,9677.075
439.215515137,9564.2
439.50692749,9238.075
439.798309326,9269.7
440.089660645,9292.525
440.380981445,9029.425
440.672332764,8983.375
440.963623047,9860.15
441.254882812,11248.275
441.546173096,11854.5
441.837402344,11081.5
442.128631592,10519.45
442.41986084,10432.975
442.711029053,10051.7
443.002197266,10263.75
443.293365479,10871.275
443.584503174,11295.625
443.875610352,11161.0
444.166717529,10374.325
444.457794189,10511.5
444.748840332,10495.675
445.039916992,10343.35
445.330932617,10659.175
445.621948242,10144.2
445.912963867,9505.475
446.203918457,10262.425
446.494812012,11023.575
446.785827637,10414.35
447.076721191,9819.575
447.367584229,9731.375
447.658447266,9654.55
447.949371338,9827.275
448.24017334,9407.5
448.530975342,9187.875
448.821838379,9729.425
449.112579346,10001.4
449.40335083,9780.7
449.694152832,9899.15
449.984863281,9922.775
450.27557373,9689.6
450.56628418,9850.7
450.856933594,9948.375
451.147583008,9474.925
451.438262939,9104.375
451.728881836,9723.575
452.019470215,10089.925
452.310089111,9395.175
452.600646973,9480.6
452.891174316,9668.625
453.181732178,9125.225
453.472229004,8671.35
453.762695312,9047.45
454.053222656,9152.7
454.343658447,8714.05
454.634063721,8508.975
454.924530029,9065.975
455.214935303,9547.8
455.505279541,9790.55
455.795715332,9318.275
456.086029053,8705.325
456.376312256,8630.925
456.666687012,8737.75
456.956939697,9076.05
457.247192383,9100.85
457.537445068,9335.675
457.827728271,9931.925
458.117919922,9739.15
458.408081055,9496.65
458.698303223,10033.35
458.988433838,9856.325
459.278564453,9259.3
459.568725586,10156.35
459.858825684,10560.35
460.148864746,9545.675
460.438995361,9432.925
460.729034424,9641.3
461.019042969,9677.825
461.309082031,10277.375
461.599060059,9917.4
461.889007568,8419.975
462.179016113,7803.3
462.468933105,8587.225
462.75881958,9012.675
463.048736572,8142.775
463.338592529,8982.325
463.628448486,10189.225
463.918365479,9192.975
464.2081604,9752.575
464.497924805,9676.25
464.787780762,10048.575
465.077514648,11016.075
465.367218018,9848.525
465.657012939,10475.1
465.946685791,11790.6
466.236358643,10552.025
466.526092529,8803.025
466.815734863,8769.475
467.105316162,8549.35
467.394927979,8616.4
467.684570312,8191.85
467.974121094,8454.05
468.263671875,8851.4
468.553222656,8128.475
468.842773438,7775.625
469.132232666,7396.45
469.42175293,7486.525
469.711212158,7413.3
470.000640869,6971.3
470.290100098,7195.0
470.579498291,7326.65
470.868835449,7324.775
471.158294678,7181.95
471.447601318,7148.85
471.736907959,7375.725
472.026275635,7597.025
472.315551758,7571.675
472.604797363,7520.2
472.894104004,7958.625
473.183319092,8327.075
473.47253418,8335.925
473.761779785,8291.575
474.05090332,8038.375
474.340087891,7879.0
474.629241943,7668.6
474.918365479,8251.775
475.207427979,9180.775
475.496551514,9241.25
475.785614014,8406.8
476.074645996,7703.975
476.363708496,8018.85
476.652679443,8504.875
476.941650391,7901.25
477.230682373,7373.425
477.519622803,7414.1
477.808502197,7882.7
478.097412109,8815.75
478.386352539,8641.425
478.675201416,7760.975
478.964050293,7371.875
479.25289917,8011.4
479.541717529,8245.25
479.830474854,7683.475
480.11932373,8846.1
480.408050537,9454.65
480.696777344,8223.975
480.985534668,7737.375
481.274200439,8047.15
481.562866211,8913.425
481.851593018,8967.55
482.140197754,8810.075
482.428833008,8226.15
482.717468262,7525.55
483.006011963,7670.075
483.294586182,8061.075
483.5831604,8210.225
483.871673584,7757.075
484.16015625,8203.7
484.448699951,9012.925
484.7371521,9156.225
485.02557373,9216.175
485.314025879,8317.325
485.602416992,12643.125
485.890777588,16383.75
486.179199219,16383.75
486.467559814,11047.35
486.755859375,7936.5
487.044219971,9245.9
487.332519531,9939.975
487.620758057,8516.6
487.908966064,7656.35
488.197265625,6917.875
488.485473633,6593.525
488.773651123,6987.775
489.061859131,7002.7
489.350006104,6811.25
489.638122559,6602.825
489.926300049,6695.075
490.214355469,6475.75
490.502441406,6298.075
490.790527344,6083.15
491.078552246,6768.0
491.366546631,6779.425
491.654602051,5955.3
491.942565918,6211.15
492.230499268,6387.8
492.518493652,6240.675
492.806396484,6388.725
493.094268799,6056.975
493.382202148,6195.4
493.670074463,6629.275
493.957885742,6105.2
494.245727539,6031.4
494.533508301,6651.3
494.821289062,6323.525
495.109100342,5714.575
495.396850586,5556.925
495.684539795,5390.725
495.972290039,6151.45
496.25994873,7372.625
496.547607422,7416.9
496.835296631,6781.25
497.122894287,5615.275
497.410522461,5340.35
497.6980896,5333.05
497.985687256,5223.2
498.273223877,5613.65
498.560760498,5847.675
498.848266602,5936.375
499.135772705,5850.825
499.423217773,5992.625
499.710693359,6400.775
499.998138428,6138.25
500.285522461,5573.975
500.572937012,5280.95
500.860290527,5460.425
501.147644043,5828.975
501.434997559,6660.775
501.722290039,6176.875
502.00958252,5333.85
502.296875,6287.225
502.584106445,6270.1
502.871337891,5624.775
503.158599854,5867.4
503.445770264,6159.1
503.732910156,6088.6
504.020141602,5443.05
504.307220459,5320.925
504.594329834,5434.1
504.881469727,5240.375
505.168518066,5497.175
505.455535889,5735.475
505.742614746,5324.4
506.029632568,5068.75
506.316589355,5744.525
506.603637695,6021.35
506.890563965,5353.975
507.177459717,4780.025
507.464385986,4478.3
507.751312256,5247.925
508.038146973,5569.65
508.325012207,5091.275
508.611877441,5243.75
508.898681641,5290.925
509.185424805,4725.475
509.472259521,4578.775
509.759002686,4891.7
510.045715332,4966.225
510.332458496,4778.35
510.619140625,4988.525
510.905761719,4726.8
511.192504883,4665.425
511.479095459,4818.4
511.765686035,4642.525
512.052307129,4351.175
512.338928223,4137.425
512.625427246,4349.65
512.91204834,4558.3
513.198486328,4512.775
513.484985352,4352.1
513.77142334,4097.55
514.057922363,4261.1
514.344299316,4273.175
514.63079834,4139.625
514.917175293,4065.725
515.203552246,3727.925
515.489868164,3643.25
515.776245117,4058.425
516.0625,4213.325
516.348815918,3892.7
516.635070801,4032.425
516.921325684,4209.225
517.207580566,4019.975
517.493774414,3667.825
517.779968262,3662.175
518.066101074,3813.025
518.352294922,3664.3
518.638366699,3660.325
518.924499512,3956.375
519.210632324,4228.575
519.496643066,4110.85
519.782714844,3738.9
520.068786621,3619.85
520.354736328,3471.575
520.640686035,3323.325
520.926757812,3500.225
521.212646484,3760.225
521.498535156,3792.95
521.784484863,3621.125
522.0703125,3375.25
522.356262207,3433.85
522.642089844,3679.35
522.927856445,3685.15
523.213684082,3655.8
523.499511719,3614.025
523.78527832,3758.6
524.070983887,3969.3
524.356750488,3878.65
524.64239502,3748.525
524.928039551,3714.0
525.213806152,3749.4
525.499389648,3686.325
525.784973145,3817.575
526.070617676,4003.025
526.356140137,3872.525
526.641723633,3890.125
526.927307129,4096.175
527.212768555,4141.775
527.498291016,4046.55
527.783752441,4056.125
528.069213867,3990.3
528.354675293,4068.675
528.640014648,4634.05
528.925476074,4876.625
529.21081543,4654.2
529.496154785,4566.5
529.781555176,4423.675
530.066833496,4497.6
530.352050781,4551.6
530.637390137,4499.025
530.922607422,4484.375
531.207824707,4489.6
531.493041992,4450.55
531.778198242,4660.6
532.063354492,4624.675
532.348571777,4402.925
532.633666992,4475.7
532.918762207,4760.55
533.203857422,5049.35
533.488891602,5134.9
533.773925781,4945.775
534.059020996,4876.2
534.343933105,4954.675
534.628967285,4891.925
534.91394043,4914.875
535.198852539,4956.825
535.483703613,4878.225
535.768676758,4673.4
536.053527832,4673.05
536.338317871,4552.65
536.62322998,4314.5
536.90802002,4242.15
537.192810059,4333.025
537.477539062,4552.15
537.762329102,4730.475
538.047058105,4859.925
538.331726074,4977.875
538.616455078,4930.375
538.901123047,4858.4
539.18572998,5018.625
539.470397949,5002.575
539.755004883,4980.35
540.039550781,4844.725
540.32409668,4704.15
540.608703613,4837.825
540.893188477,5172.2
541.17767334,5230.475
541.462158203,5220.85
541.746643066,5042.3
542.031066895,5186.475
542.315429688,5374.975
542.59979248,5340.725
542.884216309,5277.95
543.168579102,5271.2
543.452941895,5276.975
543.737243652,5445.9
544.021484375,5651.025
544.305725098,5608.9
544.590026855,5527.575
544.874267578,5563.35
545.158447266,5795.675
545.442626953,5518.5
545.726806641,5157.35
546.010925293,5258.95
546.29510498,5378.35
546.579162598,5371.825
546.863220215,5470.725
547.147277832,5724.575
547.431335449,5999.575
547.715332031,6219.175
547.999328613,6614.8
548.283325195,6631.9
548.567260742,6115.025
548.851135254,6035.375
549.135070801,5950.675
549.419006348,5602.275
549.702819824,5964.05
549.986755371,6219.45
550.270507812,6115.025
550.554321289,6240.525
550.83807373,6297.325
551.121826172,6130.925
551.405517578,6184.025
551.689331055,6594.125
551.973022461,7420.55
552.256652832,7614.075
552.540344238,7288.4
552.823974609,7222.125
553.107543945,7192.775
553.391174316,7365.425
553.674743652,7577.5
553.958251953,7594.8
554.241821289,7608.025
554.525268555,7411.825
554.808776855,7381.8
555.092285156,8049.475
555.375671387,8347.475
555.659057617,8313.7
555.942504883,8450.925
556.225891113,8586.825
556.509216309,8431.85
556.792541504,8116.375
557.075866699,8405.275
557.359130859,8506.8
557.64239502,8540.65
557.92565918,8750.65
558.208862305,8695.125
558.49206543,8466.1
558.77532959,8530.625
559.058410645,8709.625
559.341552734,8671.7
559.624694824,8826.725
559.907775879,9092.475
560.190856934,9507.625
560.473937988,9521.5
560.756896973,9632.825
561.039978027,9750.8
561.322937012,9557.25
561.605895996,9562.75
561.88885498,9443.1
562.171813965,9436.15
562.454650879,9438.6
562.737548828,9560.4
563.020446777,9796.85
563.303283691,9835.25
563.58605957,10014.6
563.868896484,10039.375
564.151672363,10217.325
564.434387207,10320.425
564.717163086,10280.9
564.99987793,10354.375
565.282531738,10589.35
565.565185547,10339.4
565.847839355,10385.25
566.130432129,10799.5
566.413085938,10727.475
566.695678711,10772.875
566.978149414,11172.35
567.260681152,11656.025
567.543273926,11906.3
567.825744629,11594.375
568.108154297,11708.1
568.390686035,12111.8
568.673095703,12482.45
568.955505371,12621.3
569.237854004,12747.9
569.520202637,13580.75
569.802490234,14310.4
570.084838867,14250.725
570.367126465,13722.475
570.649414062,13763.925
570.93170166,14855.325
571.213928223,15123.0
571.496154785,14385.525
571.778381348,15042.9
572.06048584,15810.425
572.342590332,14464.0
572.624755859,13354.675
572.906860352,13500.025
573.188903809,15595.8
573.470947266,16351.8
573.752990723,15699.775
574.03503418,15973.675
574.317016602,16383.75
574.598937988,16383.75
574.88092041,16155.125
575.162841797,16383.75
575.444763184,15684.8
575.726623535,14810.9
576.008483887,14952.4
576.290344238,16152.925
576.572143555,16383.75
576.853881836,16383.75
577.135681152,16383.75
577.417419434,16383.75
577.699157715,16383.75
577.980895996,16383.75
578.262573242,16383.75
578.544128418,16383.75
578.825866699,16367.05
579.107421875,15507.45
579.388977051,15945.15
579.670593262,16383.75
579.952148438,16383.75
580.233642578,16383.75
580.515197754,16383.75
580.796691895,16381.125
581.078125,16383.75
581.359619141,16383.75
581.640991211,16383.75
581.922363281,16383.75
582.203796387,16383.75
582.485107422,16383.75
582.766418457,16383.75
583.047790527,16383.75
583.329040527,16228.775
583.610290527,15781.9
583.891540527,16110.375
584.172790527,16383.75
584.453918457,16383.75
584.735107422,16383.75
585.016235352,16383.75
585.297363281,16383.75
585.578552246,16383.75
585.859619141,16383.75
586.140625,16383.75
586.421630859,16383.75
586.702697754,16383.75
586.983642578,16383.75
587.264648438,16383.75
587.545654297,16383.75
587.826477051,16383.75
588.107421875,16383.75
588.388305664,16383.75
588.669189453,16383.75
588.950012207,16383.75
589.230834961,16383.75
589.511657715,16383.75
589.792358398,16383.75
590.073120117,16383.75
590.353881836,16383.75
590.63458252,16383.75
590.915283203,16383.75
591.195922852,16383.75
591.4765625,16383.75
591.757202148,16383.75
592.037780762,16383.75
592.31829834,16383.75
592.598937988,16383.75
592.879394531,16383.75
593.159912109,16383.75
593.440429688,16383.75
593.720825195,16383.75
594.001281738,16383.75
594.281677246,16383.75
594.562072754,16383.75
594.842407227,16383.75
595.122802734,16383.75
595.403137207,16383.75
595.683410645,16383.75
595.963623047,16383.75
596.243896484,16383.75
596.524169922,16383.75
596.804382324,16383.75
597.084533691,16383.75
597.364746094,16383.75
597.644836426,16383.75
597.924987793,16383.75
598.205078125,16383.75
598.485107422,16383.75
598.765197754,16383.75
599.045227051,16383.75
599.325195312,16383.75
599.605224609,16383.75
599.885192871,16383.75
600.165100098,16383.75
600.445007324,16383.75
600.724914551,16383.75
601.004760742,16383.75
601.284667969,16383.75
601.56451416,16383.75
601.844238281,16383.75
602.124084473,16383.75
602.403808594,16383.75
602.683532715,16383.75
602.963256836,16383.75
603.242919922,16383.75
603.522583008,16383.75
603.802246094,16383.75
604.081848145,16383.75
604.36138916,16383.75
604.641052246,16383.75
604.920532227,16383.75
605.200073242,16383.75
605.479614258,16383.75
605.759094238,16383.75
606.038574219,16383.75
606.317932129,16383.75
606.597412109,16383.75
606.87677002,16383.75
607.15612793,16383.75
607.435546875,16383.75
607.714782715,16383.75
607.99407959,16383.75
608.273376465,16383.75
608.552612305,16383.75
608.831848145,16383.75
609.111083984,16383.75
609.390258789,16383.75
609.669433594,16383.75
609.948608398,16383.75
610.227722168,16383.75
610.506713867,16383.75
610.785888672,16383.75
611.064880371,16383.75
611.34387207,16383.75
611.622924805,16383.75
611.901916504,16383.75
612.180847168,16383.75
612.459777832,16383.75
612.738647461,16383.75
613.01751709,16383.75
613.296447754,16383.75
613.575317383,16383.75
613.854064941,16383.75
614.132873535,16383.75
614.411621094,16383.75
614.690368652,16383.75
614.969177246,16383.75
615.247802734,16383.75
615.526489258,16383.75
615.805175781,16383.75
616.08380127,16383.75
616.362365723,16332.35
616.640991211,16177.475
616.919555664,16046.525
617.198059082,16383.75
617.4765625,16383.75
617.755126953,16383.75
618.033569336,16383.75
618.311950684,16383.75
618.590454102,16383.75
618.868774414,16383.75
619.147155762,16383.75
619.425598145,16383.75
619.703857422,16383.75
619.982177734,16383.75
620.260498047,16383.75
620.538757324,16383.75
620.816955566,16383.75
621.095214844,16383.75
621.373413086,16383.75
621.651550293,16383.75
621.929748535,16383.75
622.207824707,16383.75
622.485900879,16383.75
622.764038086,16383.75
623.042053223,16383.75
623.320007324,16383.75
623.598083496,16383.75
623.876037598,16383.75
624.153991699,16383.75
624.432006836,16383.75
624.709838867,16383.75
624.987731934,16383.75
625.265563965,16383.75
625.543395996,16383.75
625.821228027,16383.75
626.098999023,16383.75
626.376831055,16383.75
626.654541016,16383.75
626.932250977,16383.75
627.209960938,16383.75
627.487670898,16383.75
627.765319824,16383.75
628.04296875,16383.75
628.320495605,16383.75
628.598083496,16383.75
628.875671387,16383.75
629.153259277,16383.75
629.430725098,16383.75
629.708251953,16383.75
629.985656738,16383.75
630.263122559,16383.75
630.540588379,16383.75
630.817932129,16383.75
631.095275879,16383.75
631.372680664,16383.75
631.649963379,16383.75
631.927246094,16383.75
632.204589844,16383.75
632.481811523,16383.75
632.759033203,16383.75
633.036254883,16383.75
633.313415527,16383.75
633.590576172,16383.75
633.867736816,16383.75
634.144836426,16383.75
634.421875,16383.75
634.698913574,16383.75
634.976013184,16383.75
635.252990723,16383.75
635.529968262,16383.75
635.807006836,16383.75
636.08392334,16383.75
636.360839844,16383.75
636.637756348,16383.75
636.914611816,16383.75
637.191467285,16383.75
637.468261719,16383.75
637.745056152,16383.75
638.021789551,16383.75
638.298583984,16383.75
638.575317383,16383.75
638.851989746,16383.75
639.12878418,16383.75
639.405395508,16383.75
639.682006836,16383.75
639.958618164,16383.75
640.235229492,16383.75
640.511779785,16383.75
640.788330078,16383.75
641.064880371,16383.75
641.341308594,16383.75
641.617797852,16383.75
641.894226074,16383.75
642.170654297,16383.75
642.44708252,16383.75
642.723388672,16383.75
642.999755859,16383.75
643.276123047,16383.75
643.552429199,16383.75
643.828674316,16383.75
644.104919434,16383.75
644.381164551,16383.75
644.657348633,16383.75
644.933532715,16383.75
645.209716797,16383.75
645.485839844,16383.75
645.761901855,16383.75
646.038024902,16383.75
646.314086914,16383.75
646.590087891,16383.75
646.866149902,16383.75
647.142150879,16383.75
647.41809082,16383.75
647.694030762,16383.75
647.969970703,16383.75
648.245788574,16383.75
648.521728516,16383.75
648.797546387,16383.75
649.073303223,16383.75
649.349182129,16383.75
649.624938965,16383.75
649.900634766,16383.75
650.176391602,16383.75
650.452087402,16383.75
650.727783203,16383.75
651.003479004,16383.75
651.279052734,16383.75
651.554626465,16383.75
651.83026123,16383.75
652.105773926,16383.75
652.381286621,16383.75
652.656860352,16383.75
652.932312012,16383.75
653.207763672,16383.75
653.483215332,16383.75
653.758605957,16383.75
654.033935547,16383.75
654.309326172,16383.75
654.584716797,16383.75
654.859985352,16383.75
655.135253906,16383.75
655.410583496,16383.75
655.685791016,16383.75
655.9609375,16383.75
656.236206055,16383.75
656.511291504,16383.75
656.786437988,16383.75
657.061645508,16383.75
657.336669922,16383.75
657.611694336,16383.75
657.886779785,16383.75
658.161804199,16383.75
658.436828613,16383.75
658.711791992,16383.75
658.986755371,16383.75
659.261657715,16383.75
659.536621094,16383.75
659.811401367,16383.75
660.086303711,16383.75
660.36114502,16383.75
660.635864258,16383.75
660.910644531,16383.75
661.185424805,16383.75
661.460205078,16383.75
661.734863281,16383.75
662.009521484,16383.75
662.284179688,16383.75
662.558776855,16383.75
662.833435059,16383.75
663.108032227,16383.75
663.382568359,16383.75
663.657043457,16383.75
663.93157959,16383.75
664.206054688,16383.75
664.48046875,16383.75
664.755004883,16383.75
665.02935791,16383.75
665.303710938,16383.75
665.578125,16383.75
665.852416992,16383.75
666.126708984,16383.75
666.401062012,16383.75
666.675292969,16383.75
666.949462891,16383.75
667.223754883,16383.75
667.497924805,16383.75
667.772094727,16383.75
668.046264648,16383.75
668.3203125,16383.75
668.594421387,16383.75
668.868469238,16383.75
669.14251709,16383.75
669.416503906,16383.75
669.690551758,16383.75
669.964477539,16383.75
670.23840332,16383.75
670.512329102,16383.75
670.786254883,16383.75
671.060058594,16383.75
671.333984375,16383.75
671.607788086,16383.75
671.881530762,16383.75
672.155334473,16383.75
672.429077148,16383.75
672.702758789,16383.75
672.97644043,16383.75
673.25012207,16383.75
673.523742676,16383.75
673.797302246,16383.75
674.070922852,16383.75
674.344482422,16383.75
674.618041992,16383.75
674.891601562,16383.75
675.165100098,16383.75
675.438476562,16383.75
675.711975098,16383.75
675.985412598,16383.75
676.258789062,16383.75
676.532165527,16383.75
676.805480957,16383.75
677.078796387,16383.75
677.352111816,16383.75
677.625366211,16383.75
677.898620605,16383.75
678.171875,16383.75
678.445007324,16383.75
678.718200684,16383.75
678.991394043,16383.75
679.264404297,16383.75
679.537536621,16383.75
679.81060791,16383.75
680.083679199,16383.75
680.356689453,16383.75
680.629699707,16383.75
680.902648926,16383.75
681.175598145,16383.75
681.448547363,16383.75
681.721435547,16383.75
681.99420166,16383.75
682.267150879,16383.75
682.539916992,16383.75
682.812744141,16383.75
683.085510254,16383.75
683.358215332,16383.75
683.63092041,16383.75
683.903625488,16383.75
684.176330566,16383.75
684.448913574,16383.75
684.721557617,16383.75
684.99420166,16383.75
685.266662598,16383.75
685.539245605,16383.75
685.811767578,16383.75
686.084289551,16383.75
686.356689453,16383.75
686.629150391,16383.75
686.901550293,16383.75
687.17401123,16383.75
687.446350098,16383.75
687.718688965,16383.75
687.990966797,16383.75
688.263305664,16383.75
688.535522461,16383.75
688.807739258,16383.75
689.079956055,16383.75
689.352172852,16383.75
689.624328613,16383.75
689.896484375,16383.75
690.168518066,16383.75
690.440612793,16383.75
690.71270752,16383.75
690.984741211,16383.75
691.256713867,16383.75
691.528747559,16383.75
691.800720215,16383.75
692.072631836,16383.75
692.344543457,16383.75
692.616394043,16383.75
692.888244629,16383.75
693.160095215,16383.75
693.431945801,16383.75
693.703674316,16383.75
693.975463867,16383.75
694.247131348,16383.75
694.518859863,16383.75
694.790588379,16383.75
695.062255859,16383.75
695.33380127,16383.75
695.60546875,16383.75
695.87701416,16383.75
696.148498535,16383.75
696.42010498,16383.75
696.691589355,16383.75
696.96307373,16383.75
697.234558105,16383.75
697.50592041,16383.75
697.777282715,16383.75
698.048706055,16383.75
698.320068359,16383.75
698.591308594,16383.75
698.862670898,16383.75
699.133972168,16383.75
699.405151367,16383.75
699.676391602,16383.75
699.947570801,16383.75
700.21875,16383.75
700.489868164,16383.75
700.761047363,16383.75
701.032104492,16383.75
701.303100586,16383.75
701.57421875,16383.75
701.845214844,16383.75
702.116149902,16383.75
702.387207031,16383.75
702.65814209,16383.75
702.928955078,16383.75
703.199951172,16383.75
703.47076416,16383.75
703.741577148,16383.75
704.012451172,16383.75
704.28314209,16383.75
704.553955078,16383.75
704.824707031,16383.75
705.095397949,16383.75
705.366027832,16383.75
705.63671875,16383.75
705.907348633,16383.75
706.17791748,16383.75
706.448486328,16383.75
706.719055176,16383.75
706.989562988,16383.75
707.260131836,16383.75
707.530517578,16383.75
707.800964355,16383.75
708.071411133,16383.75
708.341796875,16383.75
708.612182617,16383.75
708.882446289,16383.75
709.152893066,16383.75
709.423156738,16383.75
709.693359375,16383.75
709.963623047,16383.75
710.233825684,16383.75
710.503967285,16383.75
710.774169922,16383.75
711.044311523,16383.75
711.31439209,16383.75
711.584533691,16383.75
711.854553223,16383.75
712.124572754,16383.75
712.39465332,16383.75
712.664611816,16383.75
712.934509277,16383.75
713.204467773,16383.75
713.474365234,16383.75
713.74420166,16383.75
714.014099121,16383.75
714.283874512,16383.75
714.553710938,16383.75
714.823486328,16383.75
715.093200684,16383.75
715.362915039,16383.75
715.632629395,16383.75
715.902282715,16383.75
716.171875,16383.75
716.441589355,16383.75
716.711181641,16383.75
716.980712891,16383.75
717.250244141,16383.75
717.519775391,16383.75
717.78918457,16383.75
718.058654785,16383.75
718.328125,16383.75
718.597473145,16383.75
718.866882324,16383.75
719.136230469,16383.75
719.405578613,16383.75
719.674865723,16383.75
719.944152832,16383.75
720.213439941,16383.75
720.48260498,16383.75
720.75177002,16383.75
721.020996094,16383.75
721.290100098,16383.75
721.559204102,16383.75
721.828308105,16383.75
722.097351074,16383.75
722.366455078,16383.75
722.635437012,16383.75
722.904418945,16383.75
723.173400879,16383.75
723.442321777,16383.75
723.711181641,16383.75
723.980102539,16383.75
724.248962402,16383.75
724.51776123,16383.75
724.786560059,16383.75
725.055358887,16383.75
725.324035645,16383.75
725.592834473,16383.75
725.86151123,16383.75
726.130187988,16383.75
726.398803711,16383.75
726.667419434,16383.75
726.935974121,16383.75
727.204528809,16383.75
727.473083496,16383.75
727.741638184,16383.75
728.010070801,16383.75
728.278564453,16383.75
728.546936035,16383.75
728.815368652,16383.75
729.08380127,16383.75
729.352111816,16383.75
729.620361328,16383.75
729.88873291,16383.75
730.156982422,16383.75
730.425231934,16383.75
730.693481445,16383.75
730.961669922,16383.75
731.229797363,16383.75
731.49798584,16383.75
731.766113281,16383.75
732.034118652,16383.75
732.302246094,16383.75
732.570251465,16383.75
732.838256836,16383.75
733.106262207,16383.75
733.374145508,16383.75
733.642089844,16383.75
733.909973145,16383.75
734.177856445,16383.75
734.445678711,16383.75
734.713562012,16383.75
734.981323242,16383.75
735.249084473,16383.75
735.516845703,16383.75
735.784545898,16383.75
736.052185059,16383.75
736.319885254,16383.75
736.587524414,16383.75
736.855102539,16383.75
737.122619629,16383.75
737.390197754,16383.75
737.657714844,16383.75
737.925170898,16383.75
738.192749023,16383.75
738.460144043,16383.75
738.727539062,16383.75
738.994995117,16383.75
739.262329102,16383.75
739.529663086,16383.75
739.79699707,16383.75
740.06427002,16383.75
740.331481934,16383.75
740.598754883,16383.75
740.865905762,16383.75
741.133056641,16383.75
741.40032959,16383.75
741.667358398,16383.75
741.934448242,16383.75
742.201599121,16383.75
742.468566895,16383.75
742.735534668,16383.75
743.002563477,16383.75
743.26953125,16383.75
743.536437988,16383.75
743.803405762,16383.75
744.0703125,16383.75
744.337097168,16383.75
744.604003906,16383.75
744.870727539,16383.75
745.137512207,16383.75
745.40423584,16383.75
745.670959473,16383.75
745.93762207,16383.75
746.204284668,16383.75
746.470947266,16383.75
746.737548828,16383.75
747.004089355,16383.75
747.270751953,16383.75
747.53717041,16383.75
747.803710938,16383.75
748.070251465,16383.75
748.336608887,16383.75
748.603027344,16383.75
748.869445801,16383.75
749.135803223,16383.75
749.402099609,16383.75
749.668457031,16383.75
749.934753418,16383.75
750.20098877,16383.75
750.467224121,16383.75
750.733459473,16383.75
750.999572754,16383.75
751.26574707,16383.75
751.531860352,16383.75
751.797912598,16383.75
752.064025879,16383.75
752.330078125,16383.75
752.596069336,16383.75
752.862060547,16383.75
753.127990723,16383.75
753.393920898,16383.75
753.659912109,16383.75
753.925720215,16383.75
754.19152832,16383.75
754.457397461,16383.75
754.723144531,16383.75
754.988952637,16383.75
755.254699707,16383.75
755.520385742,16383.75
755.786071777,16383.75
756.051696777,16383.75
756.317382812,16383.75
756.582946777,16383.75
756.848510742,16383.75
757.114074707,16383.75
757.379577637,16383.75
757.645080566,16383.75
757.910583496,16383.75
758.175964355,16383.75
758.441345215,16383.75
758.706848145,16383.75
758.972106934,16383.75
759.237426758,16383.75
759.502807617,16383.75
759.768005371,16383.75
760.03326416,16383.75
760.298522949,16383.75
760.563659668,16383.75
760.828857422,16383.75
761.093994141,16383.75
761.359130859,16383.75
761.624206543,16383.75
761.889282227,16383.75
762.15423584,16383.75
762.419250488,16383.75
762.684265137,16383.75
762.949157715,16383.75
763.214050293,16383.75
763.479003906,16383.75
763.743835449,16383.75
764.008666992,16383.75
764.2734375,16383.75
764.538208008,16383.75
764.802978516,16383.75
765.067687988,16383.75
765.332397461,16383.75
765.597045898,16383.75
765.861694336,16383.75
766.126342773,16383.75
766.390930176,16383.75
766.655395508,16383.75
766.920043945,16383.75
767.184509277,16383.75
767.448974609,16383.75
767.713439941,16383.75
767.977783203,16383.75
768.2421875,16383.75
768.506591797,16383.75
768.770874023,16383.75
769.03515625,16383.75
769.299499512,16383.75
769.563720703,16383.75
769.827941895,16383.75
770.092163086,16383.75
770.356323242,16383.75
770.620483398,16383.75
770.88458252,16383.75
771.148681641,16383.75
771.412719727,16383.75
771.676757812,16383.75
771.940734863,16383.75
772.204711914,16383.75
772.468688965,16383.75
772.73260498,16383.75
772.996459961,16383.75
773.260314941,16383.75
773.524169922,4861.1
773.787963867,253.675
774.051696777,115.325
774.315551758,109.675
774.579223633,108.05
774.842895508,104.325
775.106567383,108.95
775.370239258,104.25
775.633789062,108.25
775.897399902,108.65
776.160949707,102.4
776.424499512,106.45
776.687988281,109.575
776.951477051,110.15
777.214904785,104.7
777.47833252,107.425
