191.299911499,98.025
191.603515625,101.925
191.907119751,96.475
192.210693359,103.025
192.514251709,97.8
192.817810059,102.625
193.121368408,101.95
193.42489624,105.625
193.728408813,97.95
194.031936646,97.6
194.33543396,93.025
194.638916016,108.925
194.94241333,96.1
195.245880127,96.6
195.549331665,94.15
195.852767944,96.425
196.156204224,213.075
196.459625244,209.825
196.763015747,208.5
197.066436768,218.425
197.369812012,208.475
197.673187256,217.8
197.9765625,209.3
198.279922485,213.0
198.583251953,205.8
198.886581421,216.2
199.18989563,225.825
199.493209839,221.95
199.79649353,217.175
200.09979248,234.175
200.403076172,230.325
200.706314087,236.75
201.009567261,243.45
201.312820435,249.775
201.616027832,245.7
201.919235229,253.675
202.222457886,260.775
202.525634766,278.375
202.828826904,275.475
203.132003784,283.225
203.435150146,295.675
203.738296509,305.4
204.041412354,307.25
204.344558716,321.0
204.647659302,327.275
204.950759888,326.775
205.253845215,333.35
205.556930542,340.0
205.859985352,335.175
206.163024902,335.4
206.466079712,344.775
206.769104004,366.0
207.072113037,364.725
207.375137329,363.125
207.678131104,376.575
207.981109619,388.1
208.284088135,389.05
208.587036133,393.125
208.889984131,404.15
209.19291687,412.875
209.495849609,420.95
209.798751831,419.7
210.101654053,432.45
210.404556274,443.475
210.707427979,469.375
211.010269165,504.325
211.31312561,531.825
211.615982056,573.275
211.918807983,612.2
212.221618652,645.225
212.524429321,691.8
212.827224731,748.4
213.130004883,795.625
213.432769775,866.225
213.735534668,912.025
214.038269043,966.5
214.341003418,1016.575
214.643737793,1062.675
214.946456909,1107.525
215.249145508,1145.85
215.551834106,1129.9
215.854507446,1103.825
216.157165527,1038.125
216.45980835,943.2
216.762451172,834.825
217.065078735,708.875
217.36769104,600.725
217.670303345,588.625
217.972885132,693.45
218.275466919,917.5
218.578048706,1173.825
218.880599976,1458.55
219.183120728,1723.075
219.485656738,1960.55
219.788192749,2148.5
220.090682983,2330.175
220.393188477,2485.725
220.695663452,2628.375
220.998138428,2718.75
221.300582886,2816.15
221.603042603,2872.825
221.905487061,2947.275
222.207901001,3032.325
222.510299683,3087.95
222.812728882,3157.875
223.115097046,3212.15
223.41746521,3284.7
223.719848633,3337.35
224.022171021,3403.925
224.324508667,3482.65
224.626846313,3576.675
224.929168701,3643.575
225.231460571,3712.6
225.533737183,3789.9
225.836013794,3865.775
226.138290405,3949.225
226.440536499,4011.0
226.742767334,4069.9
227.044998169,4140.975
227.347213745,4239.225
227.649429321,4312.225
227.951629639,4337.625
228.253799438,4394.5
228.555953979,4457.025
228.858123779,4537.775
229.160263062,4538.325
229.462371826,4639.75
229.764511108,4701.225
230.066619873,4711.6
230.36869812,4797.825
230.670776367,4869.225
230.972854614,4944.55
231.274902344,5017.875
231.576950073,5101.1
231.878967285,5160.4
232.180999756,5267.975
232.48298645,5389.1
232.784988403,5483.475
233.086975098,5561.45
233.388946533,5632.325
233.69090271,5739.9
233.992858887,5836.225
234.294769287,5875.375
234.596694946,5967.25
234.898605347,6076.875
235.200500488,6111.25
235.502380371,6165.55
235.804244995,6228.925
236.106109619,6260.025
236.407958984,6292.15
236.709777832,6382.225
237.011581421,6403.975
237.313400269,6420.4
237.615203857,6446.75
237.916976929,6496.9
238.21875,6518.825
238.520507812,6561.1
238.822250366,6607.1
239.12399292,6613.35
239.425704956,6680.675
239.727401733,6652.275
240.02911377,6673.325
240.330780029,6679.675
240.632446289,6728.625
240.93409729,6756.75
241.23576355,6791.15
241.537384033,6807.2
241.839004517,6847.425
242.140594482,6863.15
242.442199707,6908.55
242.743774414,6946.075
243.045333862,6994.35
243.346923828,7007.3
243.648452759,7015.85
243.949966431,7015.3
244.251495361,7059.775
244.552993774,7055.525
244.854492188,7014.125
245.155975342,7021.4
245.457443237,7043.7
245.758880615,7008.575
246.060333252,6995.075
246.36177063,6945.875
246.66317749,6899.175
246.964569092,6881.2
247.265945435,6848.25
247.567337036,6848.275
247.86869812,6833.775
248.170059204,6834.425
248.471389771,6816.925
248.772705078,6827.6
249.074035645,6852.8
249.375335693,6847.45
249.676620483,6859.8
249.977890015,6910.85
250.279159546,6976.575
250.58039856,7021.2
250.881637573,7030.825
251.182876587,7095.575
251.484069824,7174.725
251.785263062,7227.825
252.086456299,7339.375
252.387619019,7386.55
252.688781738,7412.175
252.989929199,7505.025
253.291061401,7571.35
253.592178345,7642.775
253.893280029,7707.125
254.194366455,7784.5
254.49546814,7798.225
254.796524048,7830.125
255.097579956,7884.2
255.398620605,7881.525
255.699645996,7927.775
256.000640869,7942.075
256.30166626,7981.6
256.602661133,8031.5
256.903656006,7966.925
257.204589844,7976.3
257.505523682,7956.125
257.80645752,7973.3
258.107391357,7916.225
258.408294678,7911.05
258.709228516,7835.2
259.010070801,7762.075
259.310943604,7751.95
259.611846924,7677.2
259.912658691,7603.95
260.213500977,7531.8
260.514343262,7459.8
260.815124512,7354.35
261.115936279,7336.9
261.416717529,7286.85
261.717468262,7227.55
262.018218994,7171.2
262.318969727,7122.1
262.619689941,7135.175
262.920410156,7184.325
263.221130371,7214.875
263.521789551,7241.2
263.822479248,7247.55
264.123138428,7312.525
264.42376709,7294.475
264.72442627,7307.475
265.025054932,7256.925
265.325622559,7257.4
265.626251221,7232.3
265.926818848,7184.5
266.227386475,7091.8
266.527954102,7049.425
266.828460693,7032.85
267.12902832,6892.55
267.429534912,6848.1
267.730010986,6773.75
268.030517578,6683.45
268.330993652,6636.75
268.631439209,6579.3
268.931915283,6534.55
269.232299805,6482.275
269.532745361,6411.275
269.8331604,6337.975
270.133544922,6300.525
270.433929443,6300.075
270.734313965,6250.95
271.034637451,6245.025
271.334991455,6187.525
271.635314941,6228.3
271.935638428,6206.125
272.235931396,6250.125
272.536254883,6298.975
272.836486816,6336.1
273.136749268,6380.275
273.437011719,6490.65
273.737213135,6544.95
274.037445068,6625.625
274.337677002,6712.3
274.6378479,6789.7
274.938049316,6892.15
275.238220215,6955.8
275.538360596,7077.8
275.838500977,7153.475
276.138641357,7307.425
276.438751221,7344.175
276.738830566,7398.8
277.03894043,7449.8
277.338989258,7576.525
277.639038086,7672.9
277.939056396,7676.6
278.239105225,7700.1
278.539093018,7801.05
278.839141846,7844.75
279.139129639,7884.525
279.439086914,7954.325
279.739044189,8030.85
280.039001465,8038.925
280.338928223,8113.5
280.63885498,8115.6
280.938781738,8158.1
281.238647461,8206.2
281.538513184,8195.975
281.838409424,8212.75
282.138244629,8245.25
282.438079834,8252.175
282.737945557,8246.425
283.037719727,8256.025
283.337524414,8277.525
283.637298584,8273.875
283.937072754,8275.8
284.236816406,8283.25
284.536560059,8242.05
284.836303711,8235.025
285.136016846,8296.25
285.43572998,8280.0
285.735412598,8224.275
286.035064697,8248.575
286.334747314,8284.55
286.634368896,8244.55
286.933990479,8167.825
287.233642578,8111.25
287.533203125,8106.725
287.832824707,8005.45
288.132385254,7917.575
288.431945801,7778.0
288.731506348,7659.75
289.031036377,7453.35
289.330566406,7345.325
289.630065918,7313.375
289.92956543,7273.75
290.229034424,7376.2
290.528503418,7526.175
290.827941895,7665.475
291.127380371,7824.125
291.42678833,7910.225
291.726226807,8059.15
292.025604248,8058.6
292.324981689,8094.2
292.624359131,8094.125
292.923736572,8104.3
293.223052979,8120.525
293.522369385,8100.2
293.821685791,8037.65
294.12097168,8023.275
294.420257568,7983.225
294.719543457,7948.175
295.018768311,7930.225
295.318023682,7875.65
295.617248535,7806.325
295.916442871,7773.825
296.215667725,7686.625
296.514862061,7540.15
296.813995361,7334.925
297.11315918,7111.3
297.412322998,6960.975
297.711425781,6946.775
298.010559082,7088.5
298.309631348,7291.075
298.608734131,7498.925
298.907806396,7686.325
299.206848145,7818.925
299.505889893,7889.0
299.804901123,7985.025
300.103912354,8045.825
300.402954102,8128.6
300.701904297,8198.6
301.00088501,8240.025
301.299835205,8303.225
301.5987854,8334.85
301.897735596,8419.725
302.196624756,8459.8
302.495513916,8557.2
302.794403076,8558.325
303.093292236,8609.075
303.392120361,8699.05
303.690979004,8741.375
303.989837646,8782.975
304.288604736,8822.05
304.587402344,8816.55
304.886199951,8874.6
305.184967041,8921.3
305.483734131,8974.225
305.782501221,8971.8
306.081176758,8961.175
306.37991333,9024.0
306.678619385,9031.65
306.977294922,9024.8
307.275970459,9047.075
307.574645996,9061.65
307.873260498,9039.075
308.171875,9042.5
308.470489502,9023.65
308.769104004,8980.075
309.067687988,8957.45
309.366241455,8959.65
309.664794922,8911.125
309.963348389,8912.7
310.261871338,8929.1
310.560394287,8950.5
310.858856201,8956.15
311.157348633,8998.225
311.455810547,8997.725
311.754272461,9014.25
312.052703857,9076.875
312.351135254,9110.05
312.649536133,9093.075
312.947937012,9081.125
313.246307373,9091.25
313.544647217,9097.375
313.843017578,9027.125
314.141387939,9005.9
314.439697266,9020.775
314.738006592,8965.575
315.036315918,8896.3
315.334564209,8798.1
315.6328125,8733.4
315.931091309,8699.2
316.229309082,8582.2
316.527526855,8444.7
316.825744629,8419.4
317.123901367,8293.825
317.422088623,8268.3
317.720245361,8231.775
318.0184021,8271.725
318.316497803,8304.3
318.614654541,8339.15
318.912750244,8464.525
319.21081543,8427.025
319.50894165,8458.75
319.806945801,8460.15
320.104980469,8437.95
320.403045654,8423.85
320.701049805,8381.0
320.999023438,8379.0
321.297027588,8323.5
321.595001221,8312.3
321.892913818,8258.225
322.190887451,8200.375
322.488830566,8145.8
322.786712646,8083.15
323.084625244,8013.45
323.382507324,7998.45
323.680358887,7923.025
323.978210449,7835.85
324.276062012,7791.925
324.573852539,7740.2
324.871643066,7703.1
325.169464111,7617.975
325.467224121,7555.75
325.764984131,7479.525
326.062744141,7398.65
326.360473633,7329.775
326.658203125,7281.975
326.955871582,7200.1
327.253570557,7141.0
327.551239014,7082.75
327.848907471,6999.0
328.146514893,6955.8
328.444152832,6873.875
328.741790771,6823.175
329.039367676,6785.15
329.336914062,6715.925
329.634521484,6654.525
329.932067871,6606.0
330.229553223,6534.775
330.527160645,6473.95
330.824615479,6429.025
331.12210083,6349.925
331.419586182,6248.45
331.717041016,6188.05
332.014465332,6088.65
332.311920166,6057.675
332.609313965,6020.625
332.906707764,6004.225
333.204101562,5998.0
333.501495361,6004.7
333.798828125,6040.075
334.096160889,6076.225
334.39352417,6136.35
334.690795898,6177.0
334.988098145,6228.525
335.285400391,6267.825
335.582641602,6284.45
335.879882812,6320.25
336.177124023,6337.5
336.474334717,6388.45
336.77154541,6392.25
337.068725586,6432.675
337.365905762,6431.025
337.66305542,6426.7
337.960205078,6455.75
338.257324219,6459.525
338.554443359,6497.925
338.8515625,6491.175
339.148590088,6471.525
339.445648193,6510.775
339.742736816,6467.075
340.039764404,6462.025
340.336761475,6423.55
340.63381958,6388.075
340.930755615,6332.7
341.227722168,6254.225
341.524688721,6186.85
341.821624756,6147.975
342.118560791,6174.0
342.415496826,6250.375
342.712402344,6374.625
343.009246826,6509.4
343.306121826,6627.0
343.602966309,6680.325
343.899810791,6761.975
344.196624756,6841.85
344.493438721,6866.725
344.79019165,6917.05
345.086975098,6962.375
345.383758545,7024.475
345.680480957,6989.05
345.977203369,7032.8
346.273956299,7054.7
346.570617676,7031.6
346.86730957,7067.425
347.163970947,7025.1
347.460601807,7086.475
347.757232666,7089.525
348.053894043,7054.675
348.350463867,6987.375
348.647064209,6989.225
348.943634033,6988.575
349.24017334,6963.65
349.536712646,6916.4
349.833251953,6933.925
350.129760742,6902.7
350.426208496,6907.075
350.722747803,6871.9
351.019195557,6878.8
351.315612793,6835.575
351.612060547,6788.825
351.908508301,6734.75
352.204864502,6670.3
352.501281738,6625.875
352.797637939,6573.675
353.093963623,6478.85
353.390319824,6436.775
353.686645508,6324.2
353.982940674,6263.075
354.27923584,6224.0
354.575531006,6158.125
354.871765137,6167.95
355.167999268,6114.9
355.464233398,6142.7
355.760437012,6139.325
356.056640625,6142.375
356.352813721,6177.6
356.648956299,6126.55
356.945129395,6176.025
357.241271973,6182.125
357.537384033,6187.3
357.833496094,6135.45
358.129577637,6113.775
358.425628662,6092.9
358.721679688,6085.875
359.017730713,6062.1
359.313720703,5985.675
359.609710693,5971.75
359.905761719,5901.55
360.201721191,5872.875
360.497650146,5820.725
360.793609619,5788.975
361.089538574,5718.725
361.385437012,5648.425
361.681365967,5586.85
361.977233887,5550.125
362.273071289,5484.325
362.568908691,5402.225
362.864746094,5265.35
363.160552979,5128.525
363.456359863,4959.75
363.752166748,4842.925
364.047912598,4773.7
364.343658447,4717.625
364.639434814,4771.3
364.935119629,4789.85
365.230834961,4845.975
365.526550293,4895.775
365.822174072,4900.175
366.117858887,4922.575
366.413482666,4949.7
366.709075928,4986.55
367.004730225,4897.675
367.300292969,4861.575
367.595855713,4926.35
367.891448975,4793.8
368.186981201,4717.675
368.482513428,4683.4
368.778015137,4693.3
369.073547363,4626.475
369.36895752,4645.375
369.664428711,4531.85
369.95993042,4428.925
370.255310059,4386.575
370.550720215,4353.275
370.846160889,4341.225
371.14151001,4283.625
371.436859131,4270.35
371.73223877,4241.9
372.027557373,4197.925
372.322875977,4138.275
372.618164062,4130.05
372.913482666,4084.825
373.208709717,4048.375
373.503967285,4011.45
373.799194336,3966.675
374.094421387,3966.75
374.389648438,3934.875
374.684844971,3928.05
374.979980469,3969.8
375.275146484,4003.3
375.570281982,4001.55
375.865386963,4005.425
376.160522461,3946.6
376.455596924,3959.75
376.750640869,4073.95
377.045715332,4075.175
377.340759277,4103.9
377.635772705,4145.05
377.93081665,4193.625
378.225769043,4280.725
378.520751953,4324.7
378.815734863,4284.175
379.110656738,4447.25
379.405548096,4610.9
379.700500488,4461.2
379.995391846,4247.8
380.290252686,4297.7
380.585083008,4408.075
380.879974365,4452.575
381.17477417,4346.275
381.469543457,4291.9
381.764404297,4286.425
382.059143066,4323.4
382.353912354,4416.575
382.648651123,4488.15
382.943389893,4453.85
383.238067627,4285.975
383.532775879,4310.525
383.827484131,4246.4
384.12210083,4232.65
384.416778564,4195.45
384.711425781,4106.175
385.006011963,4112.25
385.300628662,4100.5
385.595184326,4185.975
385.88973999,4280.35
386.184295654,4398.175
386.478820801,4463.5
386.77331543,4547.45
387.067840576,4676.825
387.362335205,4745.175
387.656768799,4811.825
387.951202393,4851.475
388.245635986,4931.0
388.540039062,5015.475
388.834472656,5074.125
389.128875732,4955.875
389.423187256,4738.6
389.717559814,4678.2
390.011871338,4800.225
390.306182861,4831.95
390.600463867,4834.525
390.894775391,4914.225
391.189025879,4925.775
391.48324585,4938.5
391.777526855,4981.9
392.071685791,5197.85
392.365875244,5297.4
392.660064697,5355.575
392.95425415,5693.025
393.248382568,5666.8
393.542510986,5213.15
393.836608887,5026.725
394.130706787,5027.025
394.424804688,4939.6
394.71887207,5105.975
395.012878418,5076.8
395.306915283,4954.2
395.600921631,4878.475
395.894927979,4854.075
396.188903809,4895.225
396.482879639,4923.8
396.776794434,5149.05
397.070739746,5075.025
397.364654541,5099.6
397.658538818,5485.125
397.952423096,5523.975
398.246307373,5482.425
398.540100098,6016.425
398.833953857,5899.6
399.127746582,5408.925
399.421508789,5408.975
399.715301514,5342.4
400.009063721,5259.125
400.30279541,5107.0
400.596496582,5026.425
400.890258789,5214.35
401.183929443,5293.15
401.47756958,5170.625
401.771240234,4916.8
402.064880371,4941.1
402.35848999,4982.275
402.652130127,4889.975
402.945678711,4955.025
403.239257812,4906.925
403.532775879,4854.7
403.82635498,4913.3
404.119842529,4820.925
404.413360596,4813.2
404.706848145,4888.975
405.000274658,4796.45
405.293762207,4892.075
405.587188721,4959.6
405.880584717,4803.05
406.17401123,4608.8
406.467407227,4413.6
406.760742188,4447.975
407.054107666,4439.125
407.347442627,4376.925
407.640716553,4372.25
407.934051514,4425.25
408.227325439,4492.05
408.520568848,4715.6
408.813842773,4827.95
409.107086182,4607.225
409.400238037,4568.275
409.693450928,4478.55
409.986633301,4623.375
410.279754639,4533.775
410.572875977,4234.7
410.86605835,4168.25
411.159118652,4200.075
411.452209473,4198.925
411.745330811,4062.575
412.038360596,3988.875
412.331390381,4020.7
412.624420166,4079.875
412.917388916,3989.5
413.210388184,3795.775
413.503387451,3774.275
413.796295166,3660.975
414.089233398,3490.775
414.382141113,3411.275
414.675048828,3395.325
414.967926025,3423.65
415.260803223,3378.4
415.55368042,3396.775
415.846466064,3354.225
416.139282227,3435.85
416.432098389,3564.2
416.724853516,3559.05
417.017608643,3492.9
417.31036377,3502.025
417.603088379,3635.2
417.895782471,3601.025
418.188476562,3569.475
418.481140137,3642.0
418.773803711,3701.975
419.066436768,3668.1
419.359039307,3744.925
419.651641846,3752.175
419.944244385,3737.6
420.236816406,3691.225
420.529327393,3919.1
420.821899414,3976.6
421.114379883,3906.2
421.406860352,4171.175
421.699371338,4374.525
421.991821289,4320.15
422.284240723,4151.475
422.576721191,3978.55
422.869110107,3864.975
423.161468506,3805.475
423.453857422,3847.45
423.74621582,3716.625
424.038543701,3583.65
424.330871582,3550.825
424.623168945,3486.0
424.915435791,3619.75
425.207702637,3587.95
425.499969482,3525.775
425.792205811,3460.175
426.084411621,3205.2
426.376617432,3276.9
426.668762207,3348.85
426.9609375,3228.475
427.253082275,3320.85
427.545196533,3749.525
427.837310791,3461.925
428.129425049,3178.975
428.421447754,3386.2
428.713531494,3383.9
429.005554199,3368.425
429.297576904,3371.025
429.589599609,3805.9
429.881561279,4114.45
430.173522949,3906.25
430.465484619,3829.425
430.757415771,3933.575
431.049316406,3677.875
431.341186523,3446.0
431.633117676,3356.275
431.924957275,3042.175
432.21673584,2941.425
432.508636475,3078.45
432.800415039,3107.475
433.092163086,2978.225
433.383972168,2960.675
433.675689697,3667.2
433.967437744,4166.875
434.259155273,3225.8
434.550872803,2911.275
434.842498779,2964.125
435.134185791,3087.775
435.425842285,3101.9
435.717437744,3025.125
436.009063721,2830.05
436.30065918,2971.325
436.592224121,3315.325
436.883758545,3116.325
437.175323486,2852.775
437.466827393,2834.025
437.758331299,2841.375
438.049804688,2867.65
438.341247559,2928.7
438.63269043,3014.875
438.924163818,3002.775
439.215515137,2946.5
439.50692749,2857.45
439.798309326,2852.025
440.089660645,2868.625
440.380981445,2784.9
440.672332764,2775.775
440.963623047,3030.125
441.254882812,3497.7
441.546173096,3665.225
441.837402344,3442.175
442.128631592,3233.35
442.41986084,3224.425
442.711029053,3077.375
443.002197266,3161.65
443.293365479,3354.575
443.584503174,3483.05
443.875610352,3447.75
444.166717529,3196.85
444.457794189,3231.475
444.748840332,3231.575
445.039916992,3174.75
445.330932617,3268.325
445.621948242,3110.15
445.912963867,2930.875
446.203918457,3144.0
446.494812012,3371.575
446.785827637,3162.5
447.076721191,3010.6
447.367584229,2984.35
447.658447266,2968.45
447.949371338,3026.05
448.24017334,2881.15
448.530975342,2808.55
448.821838379,2991.35
449.112579346,3051.05
449.40335083,2977.9
449.694152832,3022.7
449.984863281,3026.975
450.27557373,2950.9
450.56628418,3015.425
450.856933594,3056.875
451.147583008,2876.675
451.438262939,2770.7
451.728881836,2968.7
452.019470215,3067.125
452.310089111,2839.675
452.600646973,2885.925
452.891174316,2928.275
453.181732178,2776.475
453.472229004,2642.2
453.762695312,2741.075
454.053222656,2779.55
454.343658447,2650.35
454.634063721,2580.25
454.924530029,2746.1
455.214935303,2899.15
455.505279541,2957.2
455.795715332,2819.35
456.086029053,2631.45
456.376312256,2618.325
456.666687012,2647.05
456.956939697,2735.375
457.247192383,2731.65
457.537445068,2813.025
457.827728271,2993.675
458.117919922,2935.375
458.408081055,2857.85
458.698303223,3021.875
458.988433838,2963.375
459.278564453,2790.75
459.568725586,3059.9
459.858825684,3191.125
460.148864746,2849.6
460.438995361,2830.675
460.729034424,2885.35
461.019042969,2894.925
461.309082031,3092.9
461.599060059,2972.55
461.889007568,2520.9
462.179016113,2335.8
462.468933105,2569.45
462.75881958,2699.625
463.048736572,2445.45
463.338592529,2703.675
463.628448486,3042.225
463.918365479,2754.275
464.2081604,2921.75
464.497924805,2896.375
464.787780762,3009.925
465.077514648,3302.05
465.367218018,2932.0
465.657012939,3129.5
465.946685791,3545.725
466.236358643,3146.45
466.526092529,2616.75
466.815734863,2615.125
467.105316162,2543.425
467.394927979,2576.825
467.684570312,2432.125
467.974121094,2515.2
468.263671875,2638.275
468.553222656,2416.0
468.842773438,2309.05
469.132232666,2199.825
469.42175293,2230.1
469.711212158,2207.525
470.000640869,2081.6
470.290100098,2140.475
470.579498291,2175.775
470.868835449,2167.3
471.158294678,2130.15
471.447601318,2109.0
471.736907959,2176.775
472.026275635,2242.425
472.315551758,2239.975
472.604797363,2213.65
472.894104004,2357.75
473.183319092,2468.25
473.47253418,2462.025
473.761779785,2439.125
474.05090332,2370.1
474.340087891,2315.125
474.629241943,2267.3
474.918365479,2425.775
475.207427979,2698.65
475.496551514,2719.8
475.785614014,2458.65
476.074645996,2273.525
476.363708496,2345.325
476.652679443,2493.575
476.941650391,2316.95
477.230682373,2164.75
477.519622803,2161.075
477.808502197,2327.525
478.097412109,2571.225
478.386352539,2532.075
478.675201416,2265.675
478.964050293,2156.775
479.25289917,2353.725
479.541717529,2404.475
479.830474854,2258.175
480.11932373,2586.625
480.408050537,2744.85
480.696777344,2373.0
480.985534668,2241.875
481.274200439,2335.275
481.562866211,2596.775
481.851593018,2604.5
482.140197754,2541.375
482.428833008,2400.375
482.717468262,2184.625
483.006011963,2218.925
483.294586182,2325.125
483.5831604,2391.025
483.871673584,2256.9
484.16015625,2381.825
484.448699951,2614.225
484.7371521,2647.55
485.02557373,2666.65
485.314025879,2394.15
485.602416992,3674.6
485.890777588,13178.6
486.179199219,11799.75
486.467559814,3154.4
486.755859375,2287.325
487.044219971,2674.475
487.332519531,2862.2
487.620758057,2453.575
487.908966064,2204.725
488.197265625,1999.175
488.485473633,1902.8
488.773651123,2014.3
489.061859131,2007.475
489.350006104,1966.65
489.638122559,1908.05
489.926300049,1914.2
490.214355469,1866.025
490.502441406,1831.2
490.790527344,1757.15
491.078552246,1933.2
491.366546631,1929.675
491.654602051,1713.325
491.942565918,1787.35
492.230499268,1833.5
492.518493652,1796.25
492.806396484,1824.3
493.094268799,1731.275
493.382202148,1764.875
493.670074463,1893.8
493.957885742,1738.05
494.245727539,1737.7
494.533508301,1898.175
494.821289062,1791.975
495.109100342,1639.125
495.396850586,1587.2
495.684539795,1556.8
495.972290039,1754.55
496.25994873,2088.775
496.547607422,2091.375
496.835296631,1931.5
497.122894287,1599.75
497.410522461,1523.325
497.6980896,1524.875
497.985687256,1491.875
498.273223877,1597.3
498.560760498,1674.825
498.848266602,1693.475
499.135772705,1656.5
499.423217773,1695.975
499.710693359,1792.525
499.998138428,1738.8
500.285522461,1576.525
500.572937012,1501.975
500.860290527,1551.725
501.147644043,1653.225
501.434997559,1870.325
501.722290039,1736.325
502.00958252,1509.175
502.296875,1776.575
502.584106445,1761.925
502.871337891,1586.025
503.158599854,1649.8
503.445770264,1727.025
503.732910156,1709.4
504.020141602,1526.325
504.307220459,1506.325
504.594329834,1536.475
504.881469727,1474.6
505.168518066,1547.5
505.455535889,1603.15
505.742614746,1490.95
506.029632568,1424.9
506.316589355,1608.1
506.603637695,1689.15
506.890563965,1503.65
507.177459717,1331.425
507.464385986,1259.25
507.751312256,1476.7
508.038146973,1552.85
508.325012207,1421.4
508.611877441,1469.3
508.898681641,1476.7
509.185424805,1337.9
509.472259521,1291.125
509.759002686,1366.1
510.045715332,1400.475
510.332458496,1347.675
510.619140625,1401.9
510.905761719,1326.025
511.192504883,1301.925
511.479095459,1343.375
511.765686035,1310.975
512.052307129,1224.15
512.338928223,1168.25
512.625427246,1217.05
512.91204834,1289.85
513.198486328,1267.55
513.484985352,1227.625
513.77142334,1149.1
514.057922363,1195.6
514.344299316,1196.175
514.63079834,1157.8
514.917175293,1148.05
515.203552246,1047.6
515.489868164,1028.3
515.776245117,1154.075
516.0625,1187.0
516.348815918,1097.675
516.635070801,1139.7
516.921325684,1192.15
517.207580566,1126.1
517.493774414,1039.75
517.779968262,1037.225
518.066101074,1074.65
518.352294922,1023.425
518.638366699,1031.525
518.924499512,1105.975
519.210632324,1174.25
519.496643066,1142.6
519.782714844,1043.875
520.068786621,1025.95
520.354736328,979.15
520.640686035,935.25
520.926757812,990.1
521.212646484,1049.15
521.498535156,1069.175
521.784484863,1014.15
522.0703125,951.375
522.356262207,965.25
522.642089844,1032.275
522.927856445,1029.225
523.213684082,1015.0
523.499511719,1015.825
523.78527832,1045.4
524.070983887,1097.675
524.356750488,1082.7
524.64239502,1049.525
524.928039551,1033.7
525.213806152,1041.725
525.499389648,1032.675
525.784973145,1057.375
526.070617676,1096.9
526.356140137,1074.2
526.641723633,1079.95
526.927307129,1136.875
527.212768555,1144.05
527.498291016,1113.6
527.783752441,1114.425
528.069213867,1097.9
528.354675293,1120.925
528.640014648,1263.875
528.925476074,1322.725
529.21081543,1259.35
529.496154785,1238.9
529.781555176,1202.85
530.066833496,1215.525
530.352050781,1244.175
530.637390137,1223.025
530.922607422,1226.525
531.207824707,1226.225
531.493041992,1208.025
531.778198242,1270.1
532.063354492,1257.725
532.348571777,1204.975
532.633666992,1212.775
532.918762207,1279.375
533.203857422,1372.025
533.488891602,1379.7
533.773925781,1341.0
534.059020996,1309.35
534.343933105,1351.9
534.628967285,1318.375
534.91394043,1334.45
535.198852539,1345.675
535.483703613,1327.725
535.768676758,1260.275
536.053527832,1270.575
536.338317871,1233.925
536.62322998,1169.925
536.90802002,1155.025
537.192810059,1169.1
537.477539062,1242.0
537.762329102,1286.15
538.047058105,1312.875
538.331726074,1349.45
538.616455078,1342.95
538.901123047,1316.075
539.18572998,1351.9
539.470397949,1357.25
539.755004883,1343.875
540.039550781,1311.425
540.32409668,1269.025
540.608703613,1306.95
540.893188477,1393.475
541.17767334,1409.75
541.462158203,1413.325
541.746643066,1360.95
542.031066895,1405.675
542.315429688,1445.4
542.59979248,1440.05
542.884216309,1433.15
543.168579102,1420.5
543.452941895,1424.575
543.737243652,1467.225
544.021484375,1515.525
544.305725098,1500.075
544.590026855,1490.3
544.874267578,1502.55
545.158447266,1558.75
545.442626953,1485.05
545.726806641,1379.35
546.010925293,1413.5
546.29510498,1439.275
546.579162598,1440.075
546.863220215,1468.025
547.147277832,1534.7
547.431335449,1596.525
547.715332031,1656.525
547.999328613,1755.325
548.283325195,1778.325
548.567260742,1626.975
548.851135254,1608.3
549.135070801,1584.925
549.419006348,1506.25
549.702819824,1580.475
549.986755371,1649.675
550.270507812,1619.825
550.554321289,1661.2
550.83807373,1679.175
551.121826172,1641.075
551.405517578,1652.375
551.689331055,1743.85
551.973022461,1961.9
552.256652832,2013.1
552.540344238,1930.725
552.823974609,1910.875
553.107543945,1902.875
553.391174316,1947.975
553.674743652,1999.45
553.958251953,2015.3
554.241821289,2012.575
554.525268555,1955.4
554.808776855,1957.0
555.092285156,2137.125
555.375671387,2211.4
555.659057617,2200.575
555.942504883,2231.525
556.225891113,2252.85
556.509216309,2233.975
556.792541504,2145.775
557.075866699,2216.9
557.359130859,2258.35
557.64239502,2244.375
557.92565918,2317.375
558.208862305,2290.875
558.49206543,2229.575
558.77532959,2249.875
559.058410645,2299.075
559.341552734,2279.425
559.624694824,2344.25
559.907775879,2397.875
560.190856934,2511.875
560.473937988,2513.05
560.756896973,2543.85
561.039978027,2565.7
561.322937012,2532.2
561.605895996,2532.8
561.88885498,2494.425
562.171813965,2501.5
562.454650879,2490.0
562.737548828,2521.25
563.020446777,2586.15
563.303283691,2606.95
563.58605957,2631.225
563.868896484,2665.6
564.151672363,2718.225
564.434387207,2740.975
564.717163086,2697.0
564.99987793,2740.75
565.282531738,2812.3
565.565185547,2739.7
565.847839355,2757.175
566.130432129,2865.85
566.413085938,2842.15
566.695678711,2843.95
566.978149414,2957.525
567.260681152,3077.675
567.543273926,3164.5
567.825744629,3074.95
568.108154297,3110.825
568.390686035,3222.1
568.673095703,3338.2
568.955505371,3377.975
569.237854004,3408.7
569.520202637,3651.95
569.802490234,3850.475
570.084838867,3834.75
570.367126465,3676.775
570.649414062,3694.4
570.93170166,4025.65
571.213928223,4100.625
571.496154785,3871.975
571.778381348,4077.05
572.06048584,4325.175
572.342590332,3896.1
572.624755859,3570.4
572.906860352,3624.225
573.188903809,4249.425
573.470947266,4496.975
573.752990723,4268.35
574.03503418,4356.775
574.317016602,4744.95
574.598937988,4526.75
574.88092041,4395.65
575.162841797,4584.45
575.444763184,4250.5
575.726623535,3998.65
576.008483887,4038.1
576.290344238,4419.0
576.572143555,4601.575
576.853881836,4670.425
577.135681152,4576.1
577.417419434,4616.05
577.699157715,5445.175
577.980895996,5606.1
578.262573242,5006.3
578.544128418,4566.425
578.825866699,4497.25
579.107421875,4218.55
579.388977051,4385.175
579.670593262,4745.525
579.952148438,4596.025
580.233642578,4710.75
580.515197754,4808.675
580.796691895,4527.95
581.078125,4698.825
581.359619141,6096.65
581.640991211,6204.45
581.922363281,5361.8
582.203796387,5385.85
582.485107422,5056.85
582.766418457,4677.525
583.047790527,4545.225
583.329040527,4443.3
583.610290527,4308.875
583.891540527,4422.35
584.172790527,4732.95
584.453918457,4732.65
584.735107422,4802.6
585.016235352,5225.05
585.297363281,5186.35
585.578552246,5003.25
585.859619141,4960.075
586.140625,4743.875
586.421630859,4620.825
586.702697754,4647.75
586.983642578,4859.275
587.264648438,5006.825
587.545654297,4970.375
587.826477051,4920.7
588.107421875,4745.475
588.388305664,4790.3
588.669189453,4879.65
588.950012207,4727.425
589.230834961,4649.475
589.511657715,4719.35
589.792358398,4815.55
590.073120117,4829.725
590.353881836,4794.8
590.63458252,4817.875
590.915283203,4792.25
591.195922852,4782.65
591.4765625,4824.0
591.757202148,4848.3
592.037780762,4838.275
592.31829834,4844.075
592.598937988,5048.125
592.879394531,5196.425
593.159912109,5117.25
593.440429688,5072.4
593.720825195,5049.225
594.001281738,5039.225
594.281677246,4948.75
594.562072754,4983.675
594.842407227,5077.6
595.122802734,5122.1
595.403137207,5104.125
595.683410645,5081.2
595.963623047,5059.075
596.243896484,5027.95
596.524169922,5025.65
596.804382324,5050.825
597.084533691,5094.925
597.364746094,5110.4
597.644836426,5141.425
597.924987793,5115.45
598.205078125,5072.975
598.485107422,5113.625
598.765197754,5226.425
599.045227051,5296.8
599.325195312,5197.075
599.605224609,5160.375
599.885192871,5191.75
600.165100098,5238.325
600.445007324,5175.4
600.724914551,5199.5
601.004760742,5188.875
601.284667969,5223.75
601.56451416,5209.3
601.844238281,5199.7
602.124084473,5191.975
602.403808594,5221.675
602.683532715,5244.25
602.963256836,5245.15
603.242919922,5295.175
603.522583008,5329.45
603.802246094,5279.25
604.081848145,5260.225
604.36138916,5242.025
604.641052246,5259.4
604.920532227,5243.625
605.200073242,5273.375
605.479614258,5305.85
605.759094238,5349.75
606.038574219,5335.45
606.317932129,5277.45
606.597412109,5293.075
606.87677002,5309.4
607.15612793,5333.5
607.435546875,5337.8
607.714782715,5360.4
607.99407959,5305.775
608.273376465,5308.275
608.552612305,5327.925
608.831848145,5331.05
609.111083984,5320.175
609.390258789,5306.0
609.669433594,5318.65
609.948608398,5384.9
610.227722168,5351.7
610.506713867,5305.125
610.785888672,5319.95
611.064880371,5298.0
611.34387207,5318.15
611.622924805,5338.75
611.901916504,5333.975
612.180847168,5272.375
612.459777832,5274.65
612.738647461,5280.475
613.01751709,5254.75
613.296447754,5218.55
613.575317383,5196.875
613.854064941,5160.5
614.132873535,5082.725
614.411621094,5015.375
614.690368652,4984.225
614.969177246,4919.775
615.247802734,4863.0
615.526489258,4824.625
615.805175781,4746.35
616.08380127,4635.325
616.362365723,4560.4
616.640991211,4508.775
616.919555664,4472.2
617.198059082,4570.8
617.4765625,4829.975
617.755126953,4984.1
618.033569336,5018.225
618.311950684,5000.725
618.590454102,4996.1
618.868774414,4977.0
619.147155762,5004.575
619.425598145,4967.2
619.703857422,4980.3
619.982177734,4984.8
620.260498047,4995.425
620.538757324,4985.6
620.816955566,4945.075
621.095214844,4889.55
621.373413086,4909.475
621.651550293,4979.1
621.929748535,5021.725
622.207824707,4998.375
622.485900879,5007.225
622.764038086,5018.925
623.042053223,5034.325
623.320007324,5077.25
623.598083496,5089.2
623.876037598,5051.9
624.153991699,5087.625
624.432006836,5088.9
624.709838867,5093.15
624.987731934,5101.725
625.265563965,5092.4
625.543395996,5122.15
625.821228027,5186.65
626.098999023,5166.875
626.376831055,5207.025
626.654541016,5213.1
626.932250977,5254.625
627.209960938,5306.675
627.487670898,5323.025
627.765319824,5333.275
628.04296875,5334.975
628.320495605,5366.0
628.598083496,5342.775
628.875671387,5385.6
629.153259277,5406.95
629.430725098,5479.625
629.708251953,5469.725
629.985656738,5500.475
630.263122559,5531.775
630.540588379,5541.8
630.817932129,5567.8
631.095275879,5604.9
631.372680664,5659.55
631.649963379,5676.7
631.927246094,5730.325
632.204589844,5763.825
632.481811523,5818.175
632.759033203,5904.15
633.036254883,5915.25
633.313415527,6011.25
633.590576172,6045.125
633.867736816,6151.2
634.144836426,6227.05
634.421875,6244.675
634.698913574,6320.75
634.976013184,6375.175
635.252990723,6449.75
635.529968262,6441.4
635.807006836,6563.425
636.08392334,6531.325
636.360839844,6453.6
636.637756348,6352.725
636.914611816,6362.775
637.191467285,6322.475
637.468261719,6404.3
637.745056152,6365.05
638.021789551,6378.975
638.298583984,6386.875
638.575317383,6429.625
638.851989746,6436.975
639.12878418,6440.675
639.405395508,6437.125
639.682006836,6481.775
639.958618164,6490.05
640.235229492,6466.8
640.511779785,6532.75
640.788330078,6498.8
641.064880371,6530.375
641.341308594,6476.675
641.617797852,6491.95
641.894226074,6501.85
642.170654297,6519.225
642.44708252,6517.65
642.723388672,6512.25
642.999755859,6497.0
643.276123047,6522.275
643.552429199,6506.025
643.828674316,6509.125
644.104919434,6497.25
644.381164551,6497.125
644.657348633,6503.575
644.933532715,6462.25
645.209716797,6481.9
645.485839844,6468.7
645.761901855,6491.7
646.038024902,6470.575
646.314086914,6494.875
646.590087891,6487.725
646.866149902,6499.3
647.142150879,6471.675
647.41809082,6448.775
647.694030762,6474.5
647.969970703,6456.675
648.245788574,6470.8
648.521728516,6462.45
648.797546387,6436.8
649.073303223,6458.775
649.349182129,6440.975
649.624938965,6444.275
649.900634766,6440.725
650.176391602,6431.625
650.452087402,6416.1
650.727783203,6426.75
651.003479004,6437.65
651.279052734,6440.475
651.554626465,6403.975
651.83026123,6429.6
652.105773926,6465.325
652.381286621,6390.975
652.656860352,6433.525
652.932312012,6425.275
653.207763672,6440.4
653.483215332,6487.8
653.758605957,6471.0
654.033935547,6464.1
654.309326172,6478.575
654.584716797,6487.4
654.859985352,6462.525
655.135253906,6477.975
655.410583496,6540.525
655.685791016,7498.175
655.9609375,11666.35
656.236206055,11506.6
656.511291504,7621.325
656.786437988,6674.825
657.061645508,6586.275
657.336669922,6566.275
657.611694336,6609.075
657.886779785,6637.75
658.161804199,6643.4
658.436828613,6598.4
658.711791992,6635.575
658.986755371,6625.35
659.261657715,6675.075
659.536621094,6661.675
659.811401367,6673.275
660.086303711,6697.35
660.36114502,6695.575
660.635864258,6692.4
660.910644531,6741.675
661.185424805,6724.0
661.460205078,6764.025
661.734863281,6743.25
662.009521484,6746.275
662.284179688,6764.475
662.558776855,6816.05
662.833435059,6839.175
663.108032227,6819.675
663.382568359,6823.35
663.657043457,6882.85
663.93157959,6913.125
664.206054688,6881.525
664.48046875,6933.075
664.755004883,6956.875
665.02935791,6966.05
665.303710938,6970.975
665.578125,7005.65
665.852416992,7008.675
666.126708984,7020.975
666.401062012,7038.55
666.675292969,7104.575
666.949462891,7073.675
667.223754883,7087.225
667.497924805,7131.375
667.772094727,7146.825
668.046264648,7110.825
668.3203125,7164.2
668.594421387,7179.7
668.868469238,7182.5
669.14251709,7214.85
669.416503906,7234.7
669.690551758,7264.375
669.964477539,7258.2
670.23840332,7255.075
670.512329102,7277.175
670.786254883,7237.05
671.060058594,7330.275
671.333984375,7352.15
671.607788086,7359.125
671.881530762,7356.475
672.155334473,7402.45
672.429077148,7392.85
672.702758789,7441.5
672.97644043,7378.35
673.25012207,7380.775
673.523742676,7387.35
673.797302246,7426.45
674.070922852,7493.65
674.344482422,7489.675
674.618041992,7479.075
674.891601562,7493.325
675.165100098,7538.6
675.438476562,7498.6
675.711975098,7577.475
675.985412598,7542.0
676.258789062,7522.925
676.532165527,7572.4
676.805480957,7534.2
677.078796387,7589.15
677.352111816,7589.125
677.625366211,7600.275
677.898620605,7585.9
678.171875,7664.55
678.445007324,7669.725
678.718200684,7692.225
678.991394043,7688.3
679.264404297,7695.225
679.537536621,7717.35
679.81060791,7746.7
680.083679199,7725.475
680.356689453,7740.575
680.629699707,7751.925
680.902648926,7708.375
681.175598145,7787.625
681.448547363,7809.475
681.721435547,7766.5
681.99420166,7823.9
682.267150879,7795.425
682.539916992,7870.175
682.812744141,7830.15
683.085510254,7827.975
683.358215332,7851.975
683.63092041,7850.125
683.903625488,7845.7
684.176330566,7841.075
684.448913574,7815.0
684.721557617,7823.725
684.99420166,7870.55
685.266662598,7853.2
685.539245605,7890.225
685.811767578,7935.05
686.084289551,7956.4
686.356689453,7968.075
686.629150391,8003.675
686.901550293,8039.15
687.17401123,8047.85
687.446350098,8091.25
687.718688965,8064.375
687.990966797,8136.525
688.263305664,8123.6
688.535522461,8113.275
688.807739258,8116.45
689.079956055,8172.8
689.352172852,8190.65
689.624328613,8183.775
689.896484375,8220.675
690.168518066,8180.75
690.440612793,8210.275
690.71270752,8260.325
690.984741211,8244.275
691.256713867,8286.85
691.528747559,8274.1
691.800720215,8307.35
692.072631836,8307.35
692.344543457,8318.35
692.616394043,8362.675
692.888244629,8387.25
693.160095215,8423.675
693.431945801,8467.525
693.703674316,8432.125
693.975463867,8415.575
694.247131348,8470.9
694.518859863,8487.65
694.790588379,8497.725
695.062255859,8536.45
695.33380127,8520.325
695.60546875,8518.525
695.87701416,8527.625
696.148498535,8562.15
696.42010498,8591.4
696.691589355,8609.75
696.96307373,8633.525
697.234558105,8691.925
697.50592041,8669.075
697.777282715,8663.975
698.048706055,8673.45
698.320068359,8718.1
698.591308594,8700.525
698.862670898,8711.8
699.133972168,8742.275
699.405151367,8722.15
699.676391602,8795.375
699.947570801,8774.5
700.21875,8784.275
700.489868164,8794.175
700.761047363,8774.85
701.032104492,8867.75
701.303100586,8804.225
701.57421875,8863.25
701.845214844,8856.875
702.116149902,8895.725
702.387207031,8857.525
702.65814209,8887.775
702.928955078,8946.725
703.199951172,8894.875
703.47076416,8889.525
703.741577148,8877.5
704.012451172,8937.175
704.28314209,8949.375
704.553955078,8913.35
704.824707031,8961.05
705.095397949,9016.475
705.366027832,8975.475
705.63671875,8999.925
705.907348633,8982.675
706.17791748,9003.125
706.448486328,9070.05
706.719055176,9076.75
706.989562988,9093.375
707.260131836,9120.3
707.530517578,9143.8
707.800964355,9133.625
708.071411133,9117.65
708.341796875,9119.475
708.612182617,9084.3
708.882446289,9084.25
709.152893066,9108.35
709.423156738,9157.75
709.693359375,9118.475
709.963623047,9113.4
710.233825684,9170.25
710.503967285,9158.1
710.774169922,9203.025
711.044311523,9140.7
711.31439209,9119.225
711.584533691,9203.975
711.854553223,9169.7
712.124572754,9204.15
712.39465332,9146.725
712.664611816,9212.575
712.934509277,9267.6
713.204467773,9210.8
713.474365234,9237.25
713.74420166,9219.25
714.014099121,9276.85
714.283874512,9297.775
714.553710938,9303.075
714.823486328,9270.4
715.093200684,9249.075
715.362915039,9298.1
715.632629395,9261.275
715.902282715,9248.9
716.171875,9262.4
716.441589355,9276.675
716.711181641,9232.125
716.980712891,9275.15
717.250244141,9263.775
717.519775391,9294.05
717.78918457,9281.4
718.058654785,9305.675
718.328125,9315.4
718.597473145,9268.125
718.866882324,9280.4
719.136230469,9322.725
719.405578613,9326.475
719.674865723,9348.5
719.944152832,9301.95
720.213439941,9273.525
720.48260498,9341.325
720.75177002,9379.55
721.020996094,9394.35
721.290100098,9384.775
721.559204102,9330.875
721.828308105,9361.775
722.097351074,9400.45
722.366455078,9351.9
722.635437012,9341.325
722.904418945,9290.05
723.173400879,9344.6
723.442321777,9378.275
723.711181641,9352.5
723.980102539,9423.05
724.248962402,9398.1
724.51776123,9347.875
724.786560059,9418.675
725.055358887,9405.175
725.324035645,9363.0
725.592834473,9415.55
725.86151123,9405.925
726.130187988,9405.95
726.398803711,9358.925
726.667419434,9372.55
726.935974121,9389.875
727.204528809,9332.95
727.473083496,9351.275
727.741638184,9306.075
728.010070801,9279.225
728.278564453,9275.825
728.546936035,9297.05
728.815368652,9248.15
729.08380127,9150.5
729.352111816,9145.4
729.620361328,9072.6
729.88873291,9121.65
730.156982422,9168.075
730.425231934,9171.125
730.693481445,9144.925
730.961669922,9205.575
731.229797363,9257.825
731.49798584,9278.825
731.766113281,9343.8
732.034118652,9416.85
732.302246094,9519.675
732.570251465,9520.325
732.838256836,9573.175
733.106262207,9659.925
733.374145508,9657.825
733.642089844,9753.35
733.909973145,9780.925
734.177856445,9864.85
734.445678711,9952.425
734.713562012,10044.375
734.981323242,10028.675
735.249084473,10062.45
735.516845703,10234.0
735.784545898,10320.75
736.052185059,10363.825
736.319885254,10488.325
736.587524414,10518.475
736.855102539,10586.85
737.122619629,10728.6
737.390197754,10751.3
737.657714844,10838.625
737.925170898,10925.925
738.192749023,11040.4
738.460144043,11115.675
738.727539062,11177.025
738.994995117,11275.25
739.262329102,11337.65
739.529663086,11494.475
739.79699707,11510.25
740.06427002,11577.875
740.331481934,11672.125
740.598754883,11723.7
740.865905762,11758.125
741.133056641,11948.975
741.40032959,11940.975
741.667358398,12028.875
741.934448242,12097.525
742.201599121,12102.075
742.468566895,12221.825
742.735534668,12243.275
743.002563477,12277.825
743.26953125,12268.525
743.536437988,12377.475
743.803405762,12473.775
744.0703125,12414.95
744.337097168,12548.1
744.604003906,12438.2
744.870727539,12530.15
745.137512207,12580.975
745.40423584,12637.35
745.670959473,12569.1
745.93762207,12612.025
746.204284668,12654.15
746.470947266,12641.65
746.737548828,12623.55
747.004089355,12699.8
747.270751953,12657.275
747.53717041,12713.95
747.803710938,12642.1
748.070251465,12652.3
748.336608887,12694.35
748.603027344,12647.7
748.869445801,12661.75
749.135803223,12641.75
749.402099609,12643.9
749.668457031,12655.35
749.934753418,12604.375
750.20098877,12559.225
750.467224121,12608.575
750.733459473,12592.1
750.999572754,12591.025
751.26574707,12454.9
751.531860352,12511.75
751.797912598,12502.65
752.064025879,12461.0
752.330078125,12482.25
752.596069336,12453.575
752.862060547,12424.95
753.127990723,12383.125
753.393920898,12377.15
753.659912109,12309.25
753.925720215,12352.875
754.19152832,12299.5
754.457397461,12248.3
754.723144531,12228.0
754.988952637,12190.15
755.254699707,12236.1
755.520385742,12233.0
755.786071777,12233.125
756.051696777,12157.725
756.317382812,12119.625
756.582946777,12077.425
756.848510742,12101.4
757.114074707,12029.175
757.379577637,12007.1
757.645080566,12109.275
757.910583496,12049.25
758.175964355,11948.55
758.441345215,11950.325
758.706848145,11819.65
758.972106934,11840.775
759.237426758,11868.375
759.502807617,11887.65
759.768005371,11877.9
760.03326416,11823.1
760.298522949,11743.0
760.563659668,11809.325
760.828857422,11763.15
761.093994141,11754.0
761.359130859,11735.95
761.624206543,11677.075
761.889282227,11626.675
762.15423584,11613.875
762.419250488,11593.75
762.684265137,11581.475
762.949157715,11574.6
763.214050293,11510.325
763.479003906,11502.025
763.743835449,11475.475
764.008666992,11449.5
764.2734375,11445.0
764.538208008,11474.9
764.802978516,11484.625
765.067687988,11451.5
765.332397461,11471.55
765.597045898,11381.625
765.861694336,11318.675
766.126342773,11276.4
766.390930176,11300.825
766.655395508,11250.3
766.920043945,11209.5
767.184509277,11216.125
767.448974609,11235.925
767.713439941,11167.525
767.977783203,11144.925
768.2421875,11228.025
768.506591797,11118.4
768.770874023,11235.775
769.03515625,11194.625
769.299499512,11165.2
769.563720703,11139.325
769.827941895,11080.425
770.092163086,11073.575
770.356323242,11074.325
770.620483398,11090.675
770.88458252,11118.5
771.148681641,11079.8
771.412719727,11044.9
771.676757812,11083.675
771.940734863,10983.55
772.204711914,10965.85
772.468688965,10964.075
772.73260498,10986.7
772.996459961,11003.3
773.260314941,9785.625
773.524169922,1245.875
773.787963867,153.8
774.051696777,122.9
774.315551758,117.475
774.579223633,118.7
774.842895508,120.25
775.106567383,119.1
775.370239258,115.6
775.633789062,119.95
775.897399902,122.775
776.160949707,116.7
776.424499512,120.75
776.687988281,122.225
776.951477051,123.175
777.214904785,119.475
777.47833252,121.775
