191.299911499,97.3
191.603515625,102.275
191.907119751,95.025
192.210693359,103.025
192.514251709,97.9
192.817810059,99.275
193.121368408,102.375
193.42489624,104.775
193.728408813,96.3
194.031936646,98.125
194.33543396,91.275
194.638916016,110.55
194.94241333,97.125
195.245880127,95.225
195.549331665,95.35
195.852767944,99.1
196.156204224,214.475
196.459625244,209.9
196.763015747,208.275
197.066436768,218.6
197.369812012,212.475
197.673187256,214.75
197.9765625,211.725
198.279922485,212.375
198.583251953,210.175
198.886581421,217.275
199.18989563,220.625
199.493209839,220.15
199.79649353,213.3
200.09979248,232.575
200.403076172,227.525
200.706314087,241.05
201.009567261,238.85
201.312820435,247.8
201.616027832,246.65
201.919235229,244.8
202.222457886,261.85
202.525634766,275.825
202.828826904,276.4
203.132003784,284.75
203.435150146,297.375
203.738296509,299.875
204.041412354,309.825
204.344558716,323.775
204.647659302,326.175
204.950759888,329.0
205.253845215,330.225
205.556930542,326.5
205.859985352,336.45
206.163024902,337.375
206.466079712,343.425
206.769104004,366.8
207.072113037,361.875
207.375137329,372.45
207.678131104,376.525
207.981109619,382.125
208.284088135,383.0
208.587036133,394.95
208.889984131,399.05
209.19291687,411.825
209.495849609,419.55
209.798751831,427.15
210.101654053,433.25
210.404556274,443.825
210.707427979,466.025
211.010269165,502.8
211.31312561,528.8
211.615982056,563.875
211.918807983,612.7
212.221618652,648.125
212.524429321,696.05
212.827224731,748.1
213.130004883,792.575
213.432769775,863.7
213.735534668,909.05
214.038269043,968.125
214.341003418,1007.225
214.643737793,1053.6
214.946456909,1098.35
215.249145508,1135.825
215.551834106,1132.275
215.854507446,1100.525
216.157165527,1033.9
216.45980835,942.9
216.762451172,835.175
217.065078735,705.775
217.36769104,595.875
217.670303345,584.5
217.972885132,677.775
218.275466919,905.55
218.578048706,1174.55
218.880599976,1462.275
219.183120728,1730.725
219.485656738,1954.4
219.788192749,2159.65
220.090682983,2334.65
220.393188477,2486.6
220.695663452,2623.6
220.998138428,2708.125
221.300582886,2805.75
221.603042603,2868.425
221.905487061,2935.55
222.207901001,3006.225
222.510299683,3084.925
222.812728882,3146.075
223.115097046,3206.075
223.41746521,3283.65
223.719848633,3340.375
224.022171021,3388.175
224.324508667,3474.625
224.626846313,3584.55
224.929168701,3599.075
225.231460571,3707.7
225.533737183,3765.65
225.836013794,3874.875
226.138290405,3938.1
226.440536499,4024.275
226.742767334,4066.475
227.044998169,4145.2
227.347213745,4247.85
227.649429321,4287.475
227.951629639,4330.15
228.253799438,4378.725
228.555953979,4464.225
228.858123779,4522.925
229.160263062,4562.4
229.462371826,4639.125
229.764511108,4673.9
230.066619873,4738.725
230.36869812,4790.9
230.670776367,4830.1
230.972854614,4946.075
231.274902344,5004.325
231.576950073,5116.6
231.878967285,5161.625
232.180999756,5290.75
232.48298645,5375.85
232.784988403,5432.8
233.086975098,5562.125
233.388946533,5647.05
233.69090271,5747.0
233.992858887,5825.325
234.294769287,5876.1
234.596694946,5964.45
234.898605347,6066.925
235.200500488,6134.35
235.502380371,6179.675
235.804244995,6251.825
236.106109619,6253.15
236.407958984,6318.675
236.709777832,6355.675
237.011581421,6400.575
237.313400269,6405.65
237.615203857,6462.2
237.916976929,6511.625
238.21875,6524.1
238.520507812,6557.8
238.822250366,6628.475
239.12399292,6631.05
239.425704956,6667.975
239.727401733,6653.575
240.02911377,6726.45
240.330780029,6681.25
240.632446289,6715.45
240.93409729,6773.7
241.23576355,6781.8
241.537384033,6837.7
241.839004517,6865.7
242.140594482,6890.175
242.442199707,6937.25
242.743774414,6942.3
243.045333862,6973.4
243.346923828,7020.5
243.648452759,7030.775
243.949966431,7046.425
244.251495361,7055.675
244.552993774,7052.9
244.854492188,7015.9
245.155975342,7057.15
245.457443237,7033.4
245.758880615,7006.6
246.060333252,6991.125
246.36177063,6951.35
246.66317749,6929.05
246.964569092,6894.975
247.265945435,6863.975
247.567337036,6859.05
247.86869812,6852.1
248.170059204,6827.4
248.471389771,6815.05
248.772705078,6835.025
249.074035645,6843.45
249.375335693,6834.65
249.676620483,6888.775
249.977890015,6918.8
250.279159546,6959.225
250.58039856,7030.825
250.881637573,7039.925
251.182876587,7102.225
251.484069824,7192.825
251.785263062,7218.525
252.086456299,7345.15
252.387619019,7358.7
252.688781738,7420.875
252.989929199,7497.05
253.291061401,7576.35
253.592178345,7667.75
253.893280029,7705.225
254.194366455,7787.55
254.49546814,7803.925
254.796524048,7836.675
255.097579956,7908.55
255.398620605,7874.375
255.699645996,7948.75
256.000640869,7959.0
256.30166626,7973.9
256.602661133,8028.95
256.903656006,7970.125
257.204589844,7991.95
257.505523682,7961.425
257.80645752,7988.05
258.107391357,7939.1
258.408294678,7908.8
258.709228516,7842.775
259.010070801,7784.425
259.310943604,7767.5
259.611846924,7682.25
259.912658691,7623.8
260.213500977,7556.675
260.514343262,7471.925
260.815124512,7381.95
261.115936279,7321.325
261.416717529,7261.75
261.717468262,7219.5
262.018218994,7181.6
262.318969727,7124.775
262.619689941,7169.25
262.920410156,7213.475
263.221130371,7245.25
263.521789551,7227.125
263.822479248,7267.75
264.123138428,7313.225
264.42376709,7314.575
264.72442627,7271.45
265.025054932,7250.125
265.325622559,7266.075
265.626251221,7231.675
265.926818848,7179.2
266.227386475,7111.575
266.527954102,7062.825
266.828460693,7051.875
267.12902832,6903.875
267.429534912,6845.35
267.730010986,6781.85
268.030517578,6700.125
268.330993652,6634.0
268.631439209,6566.675
268.931915283,6511.525
269.232299805,6461.25
269.532745361,6418.675
269.8331604,6356.175
270.133544922,6291.725
270.433929443,6287.025
270.734313965,6257.125
271.034637451,6241.75
271.334991455,6206.15
271.635314941,6249.6
271.935638428,6216.65
272.235931396,6266.775
272.536254883,6283.125
272.836486816,6326.9
273.136749268,6380.5
273.437011719,6465.275
273.737213135,6560.25
274.037445068,6617.225
274.337677002,6693.425
274.6378479,6777.95
274.938049316,6918.8
275.238220215,6973.475
275.538360596,7100.25
275.838500977,7145.95
276.138641357,7313.45
276.438751221,7338.05
276.738830566,7421.775
277.03894043,7458.15
277.338989258,7579.8
277.639038086,7656.875
277.939056396,7669.425
278.239105225,7758.725
278.539093018,7795.85
278.839141846,7856.675
279.139129639,7900.925
279.439086914,7983.9
279.739044189,8013.125
280.039001465,8097.95
280.338928223,8096.25
280.63885498,8134.625
280.938781738,8188.55
281.238647461,8199.35
281.538513184,8190.425
281.838409424,8231.3
282.138244629,8276.95
282.438079834,8262.15
282.737945557,8251.575
283.037719727,8260.2
283.337524414,8266.575
283.637298584,8285.75
283.937072754,8305.5
284.236816406,8269.2
284.536560059,8246.325
284.836303711,8253.275
285.136016846,8286.175
285.43572998,8298.15
285.735412598,8273.35
286.035064697,8223.0
286.334747314,8282.65
286.634368896,8255.575
286.933990479,8196.35
287.233642578,8125.5
287.533203125,8103.0
287.832824707,8044.35
288.132385254,7935.35
288.431945801,7772.2
288.731506348,7644.5
289.031036377,7456.425
289.330566406,7335.325
289.630065918,7318.35
289.92956543,7256.975
290.229034424,7356.375
290.528503418,7524.7
290.827941895,7669.375
291.127380371,7817.925
291.42678833,7932.425
291.726226807,8057.875
292.025604248,8086.275
292.324981689,8102.875
292.624359131,8123.025
292.923736572,8100.95
293.223052979,8122.225
293.522369385,8082.3
293.821685791,8058.5
294.12097168,8017.575
294.420257568,7975.45
294.719543457,7956.9
295.018768311,7951.05
295.318023682,7871.15
295.617248535,7827.925
295.916442871,7757.525
296.215667725,7671.35
296.514862061,7527.85
296.813995361,7327.1
297.11315918,7123.75
297.412322998,6985.2
297.711425781,6964.1
298.010559082,7110.175
298.309631348,7290.65
298.608734131,7492.0
298.907806396,7691.95
299.206848145,7811.45
299.505889893,7878.325
299.804901123,8000.35
300.103912354,8067.925
300.402954102,8128.2
300.701904297,8187.4
301.00088501,8259.85
301.299835205,8352.1
301.5987854,8355.125
301.897735596,8432.15
302.196624756,8485.325
302.495513916,8540.325
302.794403076,8563.65
303.093292236,8620.225
303.392120361,8677.475
303.690979004,8710.9
303.989837646,8795.6
304.288604736,8837.4
304.587402344,8855.525
304.886199951,8881.45
305.184967041,8910.7
305.483734131,8938.575
305.782501221,8993.15
306.081176758,9006.975
306.37991333,9021.0
306.678619385,9027.675
306.977294922,9020.825
307.275970459,9067.4
307.574645996,9050.575
307.873260498,9017.2
308.171875,9059.525
308.470489502,9037.0
308.769104004,8981.175
309.067687988,8974.65
309.366241455,8989.65
309.664794922,8930.65
309.963348389,8918.05
310.261871338,8907.55
310.560394287,8938.675
310.858856201,8979.125
311.157348633,9012.975
311.455810547,8988.65
311.754272461,8999.2
312.052703857,9091.1
312.351135254,9091.5
312.649536133,9082.275
312.947937012,9070.025
313.246307373,9090.725
313.544647217,9103.5
313.843017578,9031.25
314.141387939,9012.95
314.439697266,9060.175
314.738006592,8952.375
315.036315918,8892.825
315.334564209,8819.125
315.6328125,8753.675
315.931091309,8711.45
316.229309082,8575.175
316.527526855,8440.9
316.825744629,8419.85
317.123901367,8295.675
317.422088623,8244.525
317.720245361,8268.625
318.0184021,8286.425
318.316497803,8319.625
318.614654541,8334.125
318.912750244,8446.6
319.21081543,8407.425
319.50894165,8473.375
319.806945801,8465.575
320.104980469,8442.525
320.403045654,8438.275
320.701049805,8420.225
320.999023438,8372.975
321.297027588,8335.325
321.595001221,8323.925
321.892913818,8279.65
322.190887451,8222.6
322.488830566,8170.675
322.786712646,8115.45
323.084625244,8024.675
323.382507324,8010.5
323.680358887,7915.7
323.978210449,7846.475
324.276062012,7817.675
324.573852539,7734.3
324.871643066,7686.55
325.169464111,7617.65
325.467224121,7555.425
325.764984131,7474.65
326.062744141,7406.05
326.360473633,7332.475
326.658203125,7269.0
326.955871582,7197.75
327.253570557,7128.7
327.551239014,7103.5
327.848907471,7034.1
328.146514893,6948.0
328.444152832,6882.625
328.741790771,6838.325
329.039367676,6796.5
329.336914062,6732.9
329.634521484,6657.975
329.932067871,6623.175
330.229553223,6542.8
330.527160645,6495.6
330.824615479,6427.125
331.12210083,6327.15
331.419586182,6235.275
331.717041016,6190.675
332.014465332,6106.625
332.311920166,6080.05
332.609313965,6040.6
332.906707764,6014.1
333.204101562,6011.5
333.501495361,6016.85
333.798828125,6059.925
334.096160889,6097.1
334.39352417,6147.05
334.690795898,6203.25
334.988098145,6217.125
335.285400391,6279.075
335.582641602,6293.4
335.879882812,6330.875
336.177124023,6373.65
336.474334717,6396.825
336.77154541,6386.6
337.068725586,6422.175
337.365905762,6439.95
337.66305542,6453.6
337.960205078,6450.875
338.257324219,6459.85
338.554443359,6506.225
338.8515625,6499.825
339.148590088,6500.775
339.445648193,6491.025
339.742736816,6478.8
340.039764404,6462.4
340.336761475,6428.625
340.63381958,6381.0
340.930755615,6337.65
341.227722168,6267.175
341.524688721,6186.875
341.821624756,6169.375
342.118560791,6167.2
342.415496826,6270.45
342.712402344,6391.425
343.009246826,6533.825
343.306121826,6610.925
343.602966309,6685.025
343.899810791,6767.375
344.196624756,6838.45
344.493438721,6873.6
344.79019165,6932.15
345.086975098,6968.975
345.383758545,7027.3
345.680480957,6988.625
345.977203369,7016.7
346.273956299,7072.275
346.570617676,7031.175
346.86730957,7062.65
347.163970947,7028.0
347.460601807,7099.45
347.757232666,7090.55
348.053894043,7064.775
348.350463867,6997.525
348.647064209,7003.825
348.943634033,6985.525
349.24017334,6987.85
349.536712646,6930.175
349.833251953,6939.775
350.129760742,6903.8
350.426208496,6898.7
350.722747803,6880.525
351.019195557,6872.825
351.315612793,6802.075
351.612060547,6780.425
351.908508301,6725.25
352.204864502,6665.025
352.501281738,6640.975
352.797637939,6579.025
353.093963623,6495.05
353.390319824,6426.25
353.686645508,6325.675
353.982940674,6262.725
354.27923584,6231.75
354.575531006,6178.425
354.871765137,6181.825
355.167999268,6133.275
355.464233398,6142.45
355.760437012,6171.025
356.056640625,6140.85
356.352813721,6183.2
356.648956299,6162.45
356.945129395,6171.925
357.241271973,6164.6
357.537384033,6182.625
357.833496094,6108.525
358.129577637,6129.7
358.425628662,6099.475
358.721679688,6096.8
359.017730713,6076.4
359.313720703,5984.025
359.609710693,5991.275
359.905761719,5918.975
360.201721191,5892.2
360.497650146,5826.725
360.793609619,5793.8
361.089538574,5734.1
361.385437012,5637.55
361.681365967,5611.725
361.977233887,5571.575
362.273071289,5495.3
362.568908691,5397.275
362.864746094,5279.7
363.160552979,5138.525
363.456359863,4977.075
363.752166748,4835.0
364.047912598,4757.375
364.343658447,4729.25
364.639434814,4765.25
364.935119629,4789.1
365.230834961,4874.575
365.526550293,4865.9
365.822174072,4907.45
366.117858887,4911.325
366.413482666,4944.475
366.709075928,4990.675
367.004730225,4879.7
367.300292969,4875.475
367.595855713,4938.9
367.891448975,4828.125
368.186981201,4716.025
368.482513428,4666.775
368.778015137,4667.2
369.073547363,4631.65
369.36895752,4645.175
369.664428711,4549.575
369.95993042,4429.8
370.255310059,4380.0
370.550720215,4358.5
370.846160889,4321.325
371.14151001,4283.0
371.436859131,4284.725
371.73223877,4248.775
372.027557373,4209.0
372.322875977,4153.5
372.618164062,4137.2
372.913482666,4096.975
373.208709717,4073.375
373.503967285,4018.325
373.799194336,3955.45
374.094421387,3967.275
374.389648438,3950.975
374.684844971,3932.85
374.979980469,3989.925
375.275146484,3985.975
375.570281982,4019.775
375.865386963,4010.5
376.160522461,3941.925
376.455596924,3969.4
376.750640869,4056.225
377.045715332,4064.225
377.340759277,4107.275
377.635772705,4159.2
377.93081665,4191.775
378.225769043,4268.9
378.520751953,4321.6
378.815734863,4278.925
379.110656738,4444.225
379.405548096,4620.975
379.700500488,4456.775
379.995391846,4240.275
380.290252686,4291.675
380.585083008,4406.95
380.879974365,4447.6
381.17477417,4359.6
381.469543457,4296.0
381.764404297,4296.05
382.059143066,4316.925
382.353912354,4407.775
382.648651123,4493.15
382.943389893,4456.625
383.238067627,4288.725
383.532775879,4296.95
383.827484131,4241.725
384.12210083,4246.825
384.416778564,4190.45
384.711425781,4093.225
385.006011963,4125.95
385.300628662,4110.9
385.595184326,4197.675
385.88973999,4289.975
386.184295654,4380.9
386.478820801,4458.65
386.77331543,4549.25
387.067840576,4679.425
387.362335205,4760.575
387.656768799,4839.575
387.951202393,4878.5
388.245635986,4928.5
388.540039062,5022.625
388.834472656,5066.175
389.128875732,4968.45
389.423187256,4745.05
389.717559814,4692.95
390.011871338,4806.05
390.306182861,4818.6
390.600463867,4833.85
390.894775391,4904.0
391.189025879,4953.2
391.48324585,4939.275
391.777526855,4988.55
392.071685791,5182.25
392.365875244,5305.275
392.660064697,5354.0
392.95425415,5711.125
393.248382568,5702.825
393.542510986,5204.525
393.836608887,5012.025
394.130706787,5022.925
394.424804688,4969.125
394.71887207,5087.725
395.012878418,5075.0
395.306915283,4950.375
395.600921631,4894.95
395.894927979,4845.175
396.188903809,4911.825
396.482879639,4929.2
396.776794434,5133.55
397.070739746,5092.0
397.364654541,5107.75
397.658538818,5499.85
397.952423096,5522.175
398.246307373,5489.5
398.540100098,6019.95
398.833953857,5892.25
399.127746582,5391.3
399.421508789,5428.025
399.715301514,5356.3
400.009063721,5269.775
400.30279541,5107.95
400.596496582,5013.65
400.890258789,5185.4
401.183929443,5289.9
401.47756958,5167.725
401.771240234,4912.6
402.064880371,4952.425
402.35848999,4996.725
402.652130127,4875.3
402.945678711,4963.6
403.239257812,4921.925
403.532775879,4857.725
403.82635498,4922.05
404.119842529,4815.9
404.413360596,4813.225
404.706848145,4875.45
405.000274658,4826.0
405.293762207,4874.275
405.587188721,4964.45
405.880584717,4789.925
406.17401123,4615.5
406.467407227,4411.475
406.760742188,4438.475
407.054107666,4447.85
407.347442627,4389.425
407.640716553,4369.4
407.934051514,4420.525
408.227325439,4506.45
408.520568848,4727.675
408.813842773,4820.5
409.107086182,4610.35
409.400238037,4554.275
409.693450928,4500.6
409.986633301,4626.825
410.279754639,4547.35
410.572875977,4238.075
410.86605835,4175.05
411.159118652,4190.75
411.452209473,4213.45
411.745330811,4075.15
412.038360596,3984.65
412.331390381,4031.575
412.624420166,4066.625
412.917388916,3987.875
413.210388184,3798.95
413.503387451,3772.7
413.796295166,3665.7
414.089233398,3496.375
414.382141113,3404.425
414.675048828,3405.525
414.967926025,3419.875
415.260803223,3382.625
415.55368042,3399.35
415.846466064,3363.9
416.139282227,3446.3
416.432098389,3571.625
416.724853516,3549.325
417.017608643,3506.025
417.31036377,3497.475
417.603088379,3624.55
417.895782471,3609.175
418.188476562,3566.9
418.481140137,3640.9
418.773803711,3697.825
419.066436768,3663.275
419.359039307,3738.525
419.651641846,3758.375
419.944244385,3749.525
420.236816406,3695.175
420.529327393,3910.175
420.821899414,3972.275
421.114379883,3901.775
421.406860352,4173.65
421.699371338,4385.9
421.991821289,4329.675
422.284240723,4121.925
422.576721191,3983.375
422.869110107,3881.875
423.161468506,3812.725
423.453857422,3855.575
423.74621582,3729.85
424.038543701,3588.625
424.330871582,3542.9
424.623168945,3485.225
424.915435791,3629.35
425.207702637,3578.65
425.499969482,3532.225
425.792205811,3468.325
426.084411621,3192.4
426.376617432,3291.95
426.668762207,3349.6
426.9609375,3225.5
427.253082275,3336.25
427.545196533,3762.55
427.837310791,3472.025
428.129425049,3166.775
428.421447754,3367.8
428.713531494,3386.975
429.005554199,3371.225
429.297576904,3377.65
429.589599609,3799.85
429.881561279,4126.6
430.173522949,3901.975
430.465484619,3834.8
430.757415771,3918.475
431.049316406,3688.225
431.341186523,3449.625
431.633117676,3356.5
431.924957275,3055.3
432.21673584,2946.725
432.508636475,3089.55
432.800415039,3095.025
433.092163086,2995.475
433.383972168,2976.6
433.675689697,3694.6
433.967437744,4169.4
434.259155273,3214.475
434.550872803,2905.475
434.842498779,2950.55
435.134185791,3094.85
435.425842285,3116.85
435.717437744,3022.7
436.009063721,2830.925
436.30065918,2970.225
436.592224121,3320.525
436.883758545,3127.9
437.175323486,2838.675
437.466827393,2830.25
437.758331299,2844.975
438.049804688,2871.375
438.341247559,2929.575
438.63269043,3011.5
438.924163818,2997.15
439.215515137,2960.125
439.50692749,2851.05
439.798309326,2855.25
440.089660645,2868.525
440.380981445,2785.025
440.672332764,2777.525
440.963623047,3040.225
441.254882812,3495.65
441.546173096,3674.675
441.837402344,3440.225
442.128631592,3238.35
442.41986084,3217.775
442.711029053,3092.025
443.002197266,3147.975
443.293365479,3358.475
443.584503174,3492.1
443.875610352,3435.125
444.166717529,3194.175
444.457794189,3235.6
444.748840332,3228.075
445.039916992,3173.025
445.330932617,3268.475
445.621948242,3120.7
445.912963867,2928.35
446.203918457,3151.9
446.494812012,3385.25
446.785827637,3174.675
447.076721191,3008.925
447.367584229,2990.65
447.658447266,2956.725
447.949371338,3013.65
448.24017334,2874.25
448.530975342,2813.35
448.821838379,2984.5
449.112579346,3063.6
449.40335083,2981.875
449.694152832,3002.55
449.984863281,3023.725
450.27557373,2938.2
450.56628418,3023.1
450.856933594,3046.15
451.147583008,2869.6
451.438262939,2767.05
451.728881836,2977.175
452.019470215,3069.675
452.310089111,2869.225
452.600646973,2898.025
452.891174316,2950.4
453.181732178,2771.275
453.472229004,2636.025
453.762695312,2740.55
454.053222656,2779.0
454.343658447,2644.675
454.634063721,2576.8
454.924530029,2763.025
455.214935303,2897.35
455.505279541,2956.45
455.795715332,2823.375
456.086029053,2625.45
456.376312256,2615.525
456.666687012,2631.075
456.956939697,2738.05
457.247192383,2744.225
457.537445068,2816.2
457.827728271,2988.65
458.117919922,2935.575
458.408081055,2855.575
458.698303223,3041.325
458.988433838,2974.35
459.278564453,2790.625
459.568725586,3073.85
459.858825684,3174.65
460.148864746,2865.4
460.438995361,2834.225
460.729034424,2872.35
461.019042969,2893.65
461.309082031,3082.325
461.599060059,2973.325
461.889007568,2522.3
462.179016113,2342.4
462.468933105,2583.9
462.75881958,2678.775
463.048736572,2443.25
463.338592529,2696.9
463.628448486,3051.95
463.918365479,2762.275
464.2081604,2919.9
464.497924805,2889.2
464.787780762,3001.875
465.077514648,3306.325
465.367218018,2932.875
465.657012939,3137.6
465.946685791,3543.425
466.236358643,3153.5
466.526092529,2614.475
466.815734863,2618.425
467.105316162,2539.9
467.394927979,2561.3
467.684570312,2433.15
467.974121094,2516.225
468.263671875,2616.85
468.553222656,2429.175
468.842773438,2307.475
469.132232666,2200.125
469.42175293,2227.8
469.711212158,2208.05
470.000640869,2072.725
470.290100098,2132.125
470.579498291,2163.35
470.868835449,2177.9
471.158294678,2117.2
471.447601318,2104.175
471.736907959,2177.025
472.026275635,2247.575
472.315551758,2228.8
472.604797363,2212.875
472.894104004,2359.325
473.183319092,2462.1
473.47253418,2444.65
473.761779785,2450.175
474.05090332,2369.075
474.340087891,2340.275
474.629241943,2266.25
474.918365479,2421.525
475.207427979,2696.55
475.496551514,2721.025
475.785614014,2457.175
476.074645996,2266.275
476.363708496,2362.75
476.652679443,2492.375
476.941650391,2315.5
477.230682373,2163.225
477.519622803,2155.925
477.808502197,2305.275
478.097412109,2588.975
478.386352539,2516.825
478.675201416,2269.525
478.964050293,2150.3
479.25289917,2354.0
479.541717529,2410.85
479.830474854,2236.725
480.11932373,2583.1
480.408050537,2768.175
480.696777344,2383.175
480.985534668,2251.275
481.274200439,2353.3
481.562866211,2583.825
481.851593018,2610.375
482.140197754,2550.0
482.428833008,2388.325
482.717468262,2193.625
483.006011963,2219.15
483.294586182,2335.125
483.5831604,2378.075
483.871673584,2251.2
484.16015625,2391.925
484.448699951,2609.0
484.7371521,2649.8
485.02557373,2662.2
485.314025879,2388.175
485.602416992,3674.925
485.890777588,13167.775
486.179199219,11825.025
486.467559814,3176.9
486.755859375,2292.575
487.044219971,2684.65
487.332519531,2860.425
487.620758057,2460.225
487.908966064,2197.5
488.197265625,1995.35
488.485473633,1903.05
488.773651123,2013.2
489.061859131,2013.65
489.350006104,1962.45
489.638122559,1901.3
489.926300049,1914.45
490.214355469,1869.3
490.502441406,1824.0
490.790527344,1757.975
491.078552246,1950.6
491.366546631,1950.575
491.654602051,1718.475
491.942565918,1785.675
492.230499268,1825.075
492.518493652,1800.75
492.806396484,1820.925
493.094268799,1728.0
493.382202148,1766.525
493.670074463,1895.725
493.957885742,1746.05
494.245727539,1730.35
494.533508301,1899.075
494.821289062,1795.625
495.109100342,1638.9
495.396850586,1591.7
495.684539795,1545.3
495.972290039,1751.95
496.25994873,2085.25
496.547607422,2096.9
496.835296631,1932.35
497.122894287,1599.925
497.410522461,1528.2
497.6980896,1529.125
497.985687256,1496.2
498.273223877,1591.175
498.560760498,1666.1
498.848266602,1682.625
499.135772705,1649.8
499.423217773,1699.675
499.710693359,1807.625
499.998138428,1737.95
500.285522461,1569.0
500.572937012,1492.575
500.860290527,1555.1
501.147644043,1649.225
501.434997559,1883.35
501.722290039,1750.025
502.00958252,1502.075
502.296875,1774.65
502.584106445,1758.2
502.871337891,1581.7
503.158599854,1657.0
503.445770264,1723.825
503.732910156,1712.6
504.020141602,1523.875
504.307220459,1512.975
504.594329834,1529.125
504.881469727,1481.775
505.168518066,1548.225
505.455535889,1610.525
505.742614746,1487.475
506.029632568,1422.7
506.316589355,1617.2
506.603637695,1688.225
506.890563965,1506.9
507.177459717,1342.2
507.464385986,1260.475
507.751312256,1467.875
508.038146973,1558.125
508.325012207,1417.65
508.611877441,1477.15
508.898681641,1486.925
509.185424805,1332.125
509.472259521,1291.9
509.759002686,1370.325
510.045715332,1403.9
510.332458496,1344.575
510.619140625,1398.0
510.905761719,1325.125
511.192504883,1316.75
511.479095459,1345.5
511.765686035,1309.75
512.052307129,1226.35
512.338928223,1166.625
512.625427246,1226.425
512.91204834,1280.2
513.198486328,1259.9
513.484985352,1241.4
513.77142334,1163.25
514.057922363,1197.025
514.344299316,1198.225
514.63079834,1155.725
514.917175293,1143.375
515.203552246,1057.3
515.489868164,1035.525
515.776245117,1153.5
516.0625,1192.3
516.348815918,1092.375
516.635070801,1132.775
516.921325684,1181.375
517.207580566,1121.425
517.493774414,1035.275
517.779968262,1043.8
518.066101074,1075.725
518.352294922,1027.35
518.638366699,1030.575
518.924499512,1107.975
519.210632324,1179.65
519.496643066,1147.675
519.782714844,1046.925
520.068786621,1015.85
520.354736328,978.675
520.640686035,948.125
520.926757812,983.575
521.212646484,1055.35
521.498535156,1065.175
521.784484863,1014.85
522.0703125,948.075
522.356262207,971.6
522.642089844,1029.7
522.927856445,1029.625
523.213684082,1022.025
523.499511719,1017.7
523.78527832,1055.2
524.070983887,1107.125
524.356750488,1080.3
524.64239502,1044.025
524.928039551,1036.525
525.213806152,1046.85
525.499389648,1038.2
525.784973145,1068.9
526.070617676,1092.85
526.356140137,1058.25
526.641723633,1080.85
526.927307129,1132.85
527.212768555,1133.575
527.498291016,1112.375
527.783752441,1119.65
528.069213867,1094.975
528.354675293,1125.075
528.640014648,1262.925
528.925476074,1324.9
529.21081543,1254.85
529.496154785,1231.325
529.781555176,1212.05
530.066833496,1216.675
530.352050781,1238.25
530.637390137,1219.25
530.922607422,1220.375
531.207824707,1221.85
531.493041992,1209.8
531.778198242,1267.625
532.063354492,1245.225
532.348571777,1198.25
532.633666992,1214.8
532.918762207,1289.35
533.203857422,1354.6
533.488891602,1396.775
533.773925781,1340.725
534.059020996,1312.1
534.343933105,1344.2
534.628967285,1316.75
534.91394043,1330.025
535.198852539,1344.875
535.483703613,1321.475
535.768676758,1255.3
536.053527832,1268.05
536.338317871,1229.325
536.62322998,1181.825
536.90802002,1161.1
537.192810059,1178.8
537.477539062,1241.15
537.762329102,1291.3
538.047058105,1313.9
538.331726074,1348.025
538.616455078,1329.7
538.901123047,1307.575
539.18572998,1362.875
539.470397949,1344.35
539.755004883,1349.375
540.039550781,1316.925
540.32409668,1273.45
540.608703613,1312.425
540.893188477,1399.725
541.17767334,1407.275
541.462158203,1412.225
541.746643066,1353.075
542.031066895,1408.075
542.315429688,1457.375
542.59979248,1458.1
542.884216309,1425.975
543.168579102,1418.6
543.452941895,1428.025
543.737243652,1480.725
544.021484375,1528.4
544.305725098,1513.15
544.590026855,1487.175
544.874267578,1504.45
545.158447266,1565.425
545.442626953,1496.25
545.726806641,1388.2
546.010925293,1429.2
546.29510498,1451.65
546.579162598,1438.85
546.863220215,1473.9
547.147277832,1526.2
547.431335449,1607.125
547.715332031,1661.7
547.999328613,1759.1
548.283325195,1773.4
548.567260742,1637.3
548.851135254,1615.175
549.135070801,1577.55
549.419006348,1502.325
549.702819824,1587.225
549.986755371,1652.95
550.270507812,1627.35
550.554321289,1649.625
550.83807373,1682.75
551.121826172,1629.95
551.405517578,1650.175
551.689331055,1751.075
551.973022461,1963.75
552.256652832,2024.825
552.540344238,1932.1
552.823974609,1914.8
553.107543945,1891.2
553.391174316,1948.25
553.674743652,1992.225
553.958251953,2015.45
554.241821289,2015.3
554.525268555,1957.675
554.808776855,1949.95
555.092285156,2120.475
555.375671387,2211.05
555.659057617,2201.975
555.942504883,2229.65
556.225891113,2262.75
556.509216309,2229.475
556.792541504,2149.35
557.075866699,2212.3
557.359130859,2254.15
557.64239502,2250.45
557.92565918,2321.175
558.208862305,2292.55
558.49206543,2230.45
558.77532959,2249.525
559.058410645,2305.45
559.341552734,2279.525
559.624694824,2331.05
559.907775879,2400.475
560.190856934,2517.3
560.473937988,2523.75
560.756896973,2548.9
561.039978027,2568.45
561.322937012,2533.825
561.605895996,2527.475
561.88885498,2492.475
562.171813965,2496.975
562.454650879,2494.55
562.737548828,2534.6
563.020446777,2598.95
563.303283691,2614.7
563.58605957,2643.725
563.868896484,2661.0
564.151672363,2709.075
564.434387207,2751.35
564.717163086,2711.2
564.99987793,2744.9
565.282531738,2799.95
565.565185547,2740.225
565.847839355,2764.625
566.130432129,2865.675
566.413085938,2838.275
566.695678711,2852.75
566.978149414,2962.025
567.260681152,3087.5
567.543273926,3152.325
567.825744629,3066.825
568.108154297,3106.225
568.390686035,3228.65
568.673095703,3326.625
568.955505371,3368.725
569.237854004,3409.275
569.520202637,3653.7
569.802490234,3857.175
570.084838867,3833.8
570.367126465,3671.925
570.649414062,3688.675
570.93170166,3998.75
571.213928223,4100.425
571.496154785,3873.2
571.778381348,4083.525
572.06048584,4331.475
572.342590332,3886.925
572.624755859,3572.95
572.906860352,3633.075
573.188903809,4266.4
573.470947266,4488.425
573.752990723,4259.725
574.03503418,4369.7
574.317016602,4728.425
574.598937988,4516.675
574.88092041,4427.45
575.162841797,4598.15
575.444763184,4256.825
575.726623535,4026.575
576.008483887,4036.8
576.290344238,4419.675
576.572143555,4607.425
576.853881836,4660.15
577.135681152,4577.5
577.417419434,4618.4
577.699157715,5417.175
577.980895996,5605.025
578.262573242,5010.9
578.544128418,4566.575
578.825866699,4499.075
579.107421875,4223.3
579.388977051,4385.125
579.670593262,4741.325
579.952148438,4602.1
580.233642578,4674.7
580.515197754,4811.9
580.796691895,4517.55
581.078125,4681.2
581.359619141,6079.375
581.640991211,6192.25
581.922363281,5341.775
582.203796387,5395.1
582.485107422,5061.35
582.766418457,4686.95
583.047790527,4530.3
583.329040527,4427.375
583.610290527,4305.275
583.891540527,4405.425
584.172790527,4712.375
584.453918457,4742.1
584.735107422,4779.05
585.016235352,5227.95
585.297363281,5201.6
585.578552246,5002.65
585.859619141,4960.4
586.140625,4744.1
586.421630859,4617.425
586.702697754,4656.725
586.983642578,4864.05
587.264648438,5032.15
587.545654297,4967.975
587.826477051,4935.5
588.107421875,4765.675
588.388305664,4797.125
588.669189453,4878.85
588.950012207,4743.725
589.230834961,4645.45
589.511657715,4736.075
589.792358398,4823.075
590.073120117,4819.025
590.353881836,4790.8
590.63458252,4807.725
590.915283203,4792.325
591.195922852,4780.825
591.4765625,4826.95
591.757202148,4839.2
592.037780762,4843.3
592.31829834,4862.3
592.598937988,5047.925
592.879394531,5189.025
593.159912109,5119.3
593.440429688,5057.075
593.720825195,5058.6
594.001281738,5040.6
594.281677246,4962.625
594.562072754,4970.0
594.842407227,5085.25
595.122802734,5105.65
595.403137207,5097.275
595.683410645,5080.375
595.963623047,5037.7
596.243896484,5022.225
596.524169922,5026.575
596.804382324,5033.25
597.084533691,5077.25
597.364746094,5102.475
597.644836426,5137.975
597.924987793,5096.775
598.205078125,5080.775
598.485107422,5112.95
598.765197754,5222.325
599.045227051,5281.075
599.325195312,5206.0
599.605224609,5139.2
599.885192871,5190.425
600.165100098,5221.55
600.445007324,5159.9
600.724914551,5202.1
601.004760742,5204.65
601.284667969,5225.375
601.56451416,5206.075
601.844238281,5195.075
602.124084473,5203.7
602.403808594,5199.0
602.683532715,5233.5
602.963256836,5234.4
603.242919922,5294.675
603.522583008,5307.1
603.802246094,5282.925
604.081848145,5250.725
604.36138916,5235.4
604.641052246,5268.475
604.920532227,5253.4
605.200073242,5267.75
605.479614258,5299.55
605.759094238,5327.725
606.038574219,5344.0
606.317932129,5279.15
606.597412109,5284.1
606.87677002,5309.125
607.15612793,5336.2
607.435546875,5332.425
607.714782715,5349.925
607.99407959,5286.875
608.273376465,5313.025
608.552612305,5324.075
608.831848145,5361.925
609.111083984,5295.8
609.390258789,5311.725
609.669433594,5327.05
609.948608398,5380.825
610.227722168,5353.05
610.506713867,5304.3
610.785888672,5319.65
611.064880371,5327.275
611.34387207,5346.9
611.622924805,5341.575
611.901916504,5328.225
612.180847168,5306.9
612.459777832,5274.15
612.738647461,5282.075
613.01751709,5285.125
613.296447754,5229.25
613.575317383,5208.325
613.854064941,5149.8
614.132873535,5063.775
614.411621094,5029.45
614.690368652,4985.2
614.969177246,4925.6
615.247802734,4852.325
615.526489258,4821.7
615.805175781,4735.725
616.08380127,4624.175
616.362365723,4565.525
616.640991211,4500.5
616.919555664,4462.125
617.198059082,4575.925
617.4765625,4838.55
617.755126953,4969.425
618.033569336,4995.95
618.311950684,5011.0
618.590454102,5009.425
618.868774414,4971.25
619.147155762,4985.325
619.425598145,4972.65
619.703857422,4963.95
619.982177734,5000.575
620.260498047,4985.125
620.538757324,4985.425
620.816955566,4947.05
621.095214844,4905.775
621.373413086,4919.425
621.651550293,4976.05
621.929748535,5003.275
622.207824707,4985.25
622.485900879,5005.075
622.764038086,5012.125
623.042053223,5046.45
623.320007324,5068.65
623.598083496,5091.75
623.876037598,5059.05
624.153991699,5062.725
624.432006836,5109.05
624.709838867,5108.3
624.987731934,5081.65
625.265563965,5089.775
625.543395996,5119.875
625.821228027,5171.9
626.098999023,5171.9
626.376831055,5202.825
626.654541016,5232.625
626.932250977,5250.175
627.209960938,5304.95
627.487670898,5317.85
627.765319824,5331.0
628.04296875,5344.25
628.320495605,5362.825
628.598083496,5360.525
628.875671387,5369.9
629.153259277,5411.7
629.430725098,5481.325
629.708251953,5464.275
629.985656738,5482.15
630.263122559,5528.975
630.540588379,5534.05
630.817932129,5558.85
631.095275879,5594.575
631.372680664,5645.325
631.649963379,5674.025
631.927246094,5731.6
632.204589844,5764.275
632.481811523,5818.95
632.759033203,5915.175
633.036254883,5933.075
633.313415527,6009.075
633.590576172,6068.025
633.867736816,6162.175
634.144836426,6206.95
634.421875,6260.825
634.698913574,6323.675
634.976013184,6392.6
635.252990723,6429.525
635.529968262,6472.55
635.807006836,6556.475
636.08392334,6520.9
636.360839844,6454.35
636.637756348,6348.175
636.914611816,6322.15
637.191467285,6309.2
637.468261719,6403.925
637.745056152,6376.025
638.021789551,6384.975
638.298583984,6387.7
638.575317383,6433.525
638.851989746,6438.175
639.12878418,6445.55
639.405395508,6432.825
639.682006836,6477.3
639.958618164,6481.1
640.235229492,6451.475
640.511779785,6518.15
640.788330078,6484.85
641.064880371,6503.65
641.341308594,6491.1
641.617797852,6487.125
641.894226074,6487.925
642.170654297,6530.925
642.44708252,6505.6
642.723388672,6506.1
642.999755859,6491.15
643.276123047,6512.95
643.552429199,6491.95
643.828674316,6500.725
644.104919434,6476.375
644.381164551,6473.475
644.657348633,6474.6
644.933532715,6441.65
645.209716797,6481.0
645.485839844,6483.05
645.761901855,6470.775
646.038024902,6447.35
646.314086914,6481.1
646.590087891,6461.6
646.866149902,6507.05
647.142150879,6465.675
647.41809082,6445.25
647.694030762,6469.525
647.969970703,6460.725
648.245788574,6463.725
648.521728516,6452.775
648.797546387,6446.025
649.073303223,6464.075
649.349182129,6438.7
649.624938965,6423.05
649.900634766,6466.325
650.176391602,6434.725
650.452087402,6405.025
650.727783203,6427.925
651.003479004,6442.525
651.279052734,6445.525
651.554626465,6413.2
651.83026123,6439.775
652.105773926,6454.25
652.381286621,6410.95
652.656860352,6419.375
652.932312012,6445.35
653.207763672,6429.125
653.483215332,6503.75
653.758605957,6462.725
654.033935547,6479.25
654.309326172,6470.075
654.584716797,6499.0
654.859985352,6466.05
655.135253906,6503.1
655.410583496,6543.025
655.685791016,7476.325
655.9609375,11699.05
656.236206055,11503.575
656.511291504,7624.325
656.786437988,6682.2
657.061645508,6574.85
657.336669922,6581.3
657.611694336,6613.425
657.886779785,6644.95
658.161804199,6645.575
658.436828613,6606.75
658.711791992,6617.3
658.986755371,6638.6
659.261657715,6639.025
659.536621094,6642.125
659.811401367,6651.975
660.086303711,6696.175
660.36114502,6696.675
660.635864258,6693.275
660.910644531,6715.15
661.185424805,6719.175
661.460205078,6758.675
661.734863281,6755.875
662.009521484,6744.7
662.284179688,6788.25
662.558776855,6780.9
662.833435059,6807.45
663.108032227,6803.475
663.382568359,6815.325
663.657043457,6853.825
663.93157959,6904.7
664.206054688,6848.825
664.48046875,6934.275
664.755004883,6937.6
665.02935791,6953.325
665.303710938,6983.675
665.578125,6997.575
665.852416992,7003.425
666.126708984,7023.1
666.401062012,7033.45
666.675292969,7055.8
666.949462891,7076.125
667.223754883,7076.2
667.497924805,7141.05
667.772094727,7136.575
668.046264648,7088.975
668.3203125,7162.225
668.594421387,7173.925
668.868469238,7194.6
669.14251709,7215.225
669.416503906,7244.125
669.690551758,7230.225
669.964477539,7257.075
670.23840332,7279.4
670.512329102,7269.9
670.786254883,7241.2
671.060058594,7322.6
671.333984375,7345.85
671.607788086,7369.575
671.881530762,7368.7
672.155334473,7381.125
672.429077148,7401.275
672.702758789,7432.925
672.97644043,7377.725
673.25012207,7398.0
673.523742676,7378.0
673.797302246,7400.3
674.070922852,7500.775
674.344482422,7490.925
674.618041992,7485.7
674.891601562,7526.325
675.165100098,7528.35
675.438476562,7527.25
675.711975098,7538.775
675.985412598,7555.15
676.258789062,7521.175
676.532165527,7585.825
676.805480957,7565.725
677.078796387,7573.95
677.352111816,7589.15
677.625366211,7611.225
677.898620605,7601.0
678.171875,7649.925
678.445007324,7663.75
678.718200684,7672.775
678.991394043,7678.95
679.264404297,7694.225
679.537536621,7715.175
679.81060791,7727.525
680.083679199,7745.175
680.356689453,7742.225
680.629699707,7762.35
680.902648926,7745.1
681.175598145,7777.125
681.448547363,7825.05
681.721435547,7797.85
681.99420166,7780.05
682.267150879,7777.575
682.539916992,7833.65
682.812744141,7814.675
683.085510254,7825.925
683.358215332,7854.575
683.63092041,7864.85
683.903625488,7872.55
684.176330566,7843.375
684.448913574,7826.775
684.721557617,7823.975
684.99420166,7893.975
685.266662598,7893.725
685.539245605,7898.8
685.811767578,7927.375
686.084289551,7931.05
686.356689453,7958.6
686.629150391,7995.675
686.901550293,8021.975
687.17401123,8021.05
687.446350098,8050.15
687.718688965,8057.05
687.990966797,8119.925
688.263305664,8111.375
688.535522461,8115.1
688.807739258,8128.375
689.079956055,8193.9
689.352172852,8184.675
689.624328613,8202.875
689.896484375,8250.275
690.168518066,8228.75
690.440612793,8248.675
690.71270752,8258.375
690.984741211,8278.95
691.256713867,8318.15
691.528747559,8298.225
691.800720215,8302.15
692.072631836,8323.975
692.344543457,8355.1
692.616394043,8360.55
692.888244629,8367.825
693.160095215,8439.1
693.431945801,8459.075
693.703674316,8430.125
693.975463867,8409.725
694.247131348,8458.775
694.518859863,8466.35
694.790588379,8512.4
695.062255859,8539.225
695.33380127,8516.825
695.60546875,8505.95
695.87701416,8565.325
696.148498535,8548.925
696.42010498,8578.45
696.691589355,8624.05
696.96307373,8646.8
697.234558105,8679.775
697.50592041,8648.4
697.777282715,8687.0
698.048706055,8676.925
698.320068359,8765.925
698.591308594,8737.65
698.862670898,8684.75
699.133972168,8761.1
699.405151367,8704.025
699.676391602,8789.3
699.947570801,8734.625
700.21875,8768.15
700.489868164,8779.975
700.761047363,8808.375
701.032104492,8846.0
701.303100586,8789.325
701.57421875,8874.25
701.845214844,8886.4
702.116149902,8877.0
702.387207031,8865.0
702.65814209,8902.775
702.928955078,8953.825
703.199951172,8900.675
703.47076416,8898.5
703.741577148,8878.65
704.012451172,8919.3
704.28314209,8950.975
704.553955078,8922.4
704.824707031,8986.875
705.095397949,9012.625
705.366027832,8990.525
705.63671875,9027.25
705.907348633,8986.075
706.17791748,9023.625
706.448486328,9062.025
706.719055176,9065.2
706.989562988,9098.75
707.260131836,9081.35
707.530517578,9145.425
707.800964355,9138.05
708.071411133,9067.025
708.341796875,9119.25
708.612182617,9102.525
708.882446289,9090.675
709.152893066,9123.675
709.423156738,9154.425
709.693359375,9144.075
709.963623047,9125.225
710.233825684,9175.225
710.503967285,9156.05
710.774169922,9179.825
711.044311523,9148.4
711.31439209,9137.225
711.584533691,9167.575
711.854553223,9183.45
712.124572754,9180.9
712.39465332,9170.225
712.664611816,9216.675
712.934509277,9268.175
713.204467773,9206.775
713.474365234,9220.325
713.74420166,9227.15
714.014099121,9255.725
714.283874512,9266.125
714.553710938,9290.675
714.823486328,9288.6
715.093200684,9254.075
715.362915039,9285.15
715.632629395,9287.45
715.902282715,9228.75
716.171875,9265.75
716.441589355,9270.475
716.711181641,9232.9
716.980712891,9278.325
717.250244141,9264.275
717.519775391,9281.2
717.78918457,9285.55
718.058654785,9334.325
718.328125,9347.7
718.597473145,9303.575
718.866882324,9291.175
719.136230469,9333.55
719.405578613,9328.45
719.674865723,9365.225
719.944152832,9330.05
720.213439941,9286.35
720.48260498,9367.175
720.75177002,9381.925
721.020996094,9378.6
721.290100098,9387.225
721.559204102,9360.45
721.828308105,9376.775
722.097351074,9365.5
722.366455078,9335.475
722.635437012,9356.15
722.904418945,9306.675
723.173400879,9350.6
723.442321777,9357.45
723.711181641,9338.525
723.980102539,9374.9
724.248962402,9408.3
724.51776123,9377.425
724.786560059,9418.25
725.055358887,9410.3
725.324035645,9411.925
725.592834473,9413.7
725.86151123,9393.85
726.130187988,9406.05
726.398803711,9382.4
726.667419434,9403.025
726.935974121,9373.6
727.204528809,9345.15
727.473083496,9369.875
727.741638184,9331.525
728.010070801,9296.375
728.278564453,9295.725
728.546936035,9297.975
728.815368652,9257.725
729.08380127,9168.775
729.352111816,9143.2
729.620361328,9072.0
729.88873291,9141.1
730.156982422,9168.7
730.425231934,9161.65
730.693481445,9153.8
730.961669922,9235.95
731.229797363,9257.95
731.49798584,9306.0
731.766113281,9370.35
732.034118652,9422.925
732.302246094,9497.95
732.570251465,9526.675
732.838256836,9557.8
733.106262207,9672.25
733.374145508,9674.35
733.642089844,9737.675
733.909973145,9779.875
734.177856445,9872.6
734.445678711,9938.0
734.713562012,10072.25
734.981323242,10023.7
735.249084473,10081.075
735.516845703,10275.025
735.784545898,10312.525
736.052185059,10396.3
736.319885254,10466.95
736.587524414,10548.95
736.855102539,10582.65
737.122619629,10751.25
737.390197754,10755.3
737.657714844,10893.8
737.925170898,10943.075
738.192749023,11076.15
738.460144043,11138.525
738.727539062,11167.075
738.994995117,11292.7
739.262329102,11338.875
739.529663086,11465.225
739.79699707,11503.075
740.06427002,11586.15
740.331481934,11679.725
740.598754883,11742.475
740.865905762,11754.5
741.133056641,11945.825
741.40032959,11941.875
741.667358398,12030.425
741.934448242,12061.125
742.201599121,12106.225
742.468566895,12213.975
742.735534668,12274.25
743.002563477,12293.0
743.26953125,12280.8
743.536437988,12368.45
743.803405762,12494.925
744.0703125,12429.55
744.337097168,12538.575
744.604003906,12471.05
744.870727539,12553.6
745.137512207,12576.75
745.40423584,12623.8
745.670959473,12554.125
745.93762207,12617.925
746.204284668,12631.25
746.470947266,12680.7
746.737548828,12644.1
747.004089355,12698.8
747.270751953,12688.15
747.53717041,12720.275
747.803710938,12666.4
748.070251465,12669.6
748.336608887,12683.6
748.603027344,12628.625
748.869445801,12669.075
749.135803223,12652.425
749.402099609,12633.3
749.668457031,12630.125
749.934753418,12576.8
750.20098877,12540.575
750.467224121,12614.475
750.733459473,12584.65
750.999572754,12557.375
751.26574707,12489.7
751.531860352,12565.125
751.797912598,12518.525
752.064025879,12424.95
752.330078125,12470.025
752.596069336,12416.875
752.862060547,12369.3
753.127990723,12375.6
753.393920898,12329.575
753.659912109,12294.75
753.925720215,12334.3
754.19152832,12287.425
754.457397461,12237.725
754.723144531,12226.025
754.988952637,12187.525
755.254699707,12189.025
755.520385742,12238.5
755.786071777,12203.025
756.051696777,12143.825
756.317382812,12116.5
756.582946777,12054.05
756.848510742,12093.6
757.114074707,12019.025
757.379577637,12002.675
757.645080566,12054.0
757.910583496,12023.05
758.175964355,11978.9
758.441345215,11970.75
758.706848145,11835.75
758.972106934,11852.325
759.237426758,11897.8
759.502807617,11900.55
759.768005371,11888.05
760.03326416,11822.45
760.298522949,11764.175
760.563659668,11794.475
760.828857422,11737.75
761.093994141,11767.3
761.359130859,11711.325
761.624206543,11685.3
761.889282227,11661.3
762.15423584,11631.85
762.419250488,11619.675
762.684265137,11540.975
762.949157715,11560.425
763.214050293,11547.025
763.479003906,11504.45
763.743835449,11512.725
764.008666992,11471.675
764.2734375,11469.4
764.538208008,11481.4
764.802978516,11496.875
765.067687988,11466.8
765.332397461,11451.45
765.597045898,11410.075
765.861694336,11352.8
766.126342773,11289.375
766.390930176,11282.375
766.655395508,11278.35
766.920043945,11235.975
767.184509277,11219.8
767.448974609,11231.7
767.713439941,11214.35
767.977783203,11185.675
768.2421875,11217.175
768.506591797,11140.275
768.770874023,11248.225
769.03515625,11187.8
769.299499512,11166.675
769.563720703,11157.4
769.827941895,11088.85
770.092163086,11110.6
770.356323242,11062.175
770.620483398,11098.6
770.88458252,11106.45
771.148681641,11126.35
771.412719727,11039.65
771.676757812,11067.75
771.940734863,11011.175
772.204711914,10959.7
772.468688965,10971.35
772.73260498,10950.8
772.996459961,11003.575
773.260314941,9816.1
773.524169922,1243.025
773.787963867,153.575
774.051696777,121.775
774.315551758,115.625
774.579223633,116.7
774.842895508,118.675
775.106567383,120.2
775.370239258,114.625
775.633789062,122.25
775.897399902,122.075
776.160949707,114.275
776.424499512,119.65
776.687988281,121.55
776.951477051,124.575
777.214904785,118.15
777.47833252,117.55
