191.299911499,99.725
191.603515625,100.85
191.907119751,95.475
192.210693359,104.95
192.514251709,97.75
192.817810059,104.175
193.121368408,102.025
193.42489624,106.025
193.728408813,97.425
194.031936646,96.875
194.33543396,92.4
194.638916016,110.8
194.94241333,95.45
195.245880127,95.7
195.549331665,94.425
195.852767944,101.225
196.156204224,179.1
196.459625244,174.025
196.763015747,177.1
197.066436768,182.45
197.369812012,176.5
197.673187256,178.125
197.9765625,176.25
198.279922485,177.95
198.583251953,171.675
198.886581421,180.025
199.18989563,180.25
199.493209839,179.95
199.79649353,169.575
200.09979248,182.625
200.403076172,176.05
200.706314087,175.2
201.009567261,173.975
201.312820435,177.075
201.616027832,171.325
201.919235229,164.25
202.222457886,169.925
202.525634766,178.275
202.828826904,166.5
203.132003784,166.75
203.435150146,172.575
203.738296509,169.35
204.041412354,168.525
204.344558716,172.625
204.647659302,172.4
204.950759888,176.7
205.253845215,171.8
205.556930542,170.025
205.859985352,172.0
206.163024902,170.025
206.466079712,173.35
206.769104004,178.475
207.072113037,171.6
207.375137329,173.625
207.678131104,173.7
207.981109619,176.675
208.284088135,170.525
208.587036133,172.125
208.889984131,178.85
209.19291687,177.95
209.495849609,176.1
209.798751831,177.125
210.101654053,176.8
210.404556274,180.9
210.707427979,176.175
211.010269165,184.9
211.31312561,185.0
211.615982056,179.775
211.918807983,183.875
212.221618652,185.325
212.524429321,178.5
212.827224731,191.075
213.130004883,181.875
213.432769775,183.275
213.735534668,184.975
214.038269043,190.375
214.341003418,185.675
214.643737793,190.775
214.946456909,191.8
215.249145508,194.725
215.551834106,195.175
215.854507446,194.225
216.157165527,193.525
216.45980835,194.425
216.762451172,199.4
217.065078735,201.05
217.36769104,199.95
217.670303345,208.85
217.972885132,208.7
218.275466919,208.4
218.578048706,210.825
218.880599976,217.625
219.183120728,217.125
219.485656738,220.95
219.788192749,243.1
220.090682983,254.625
220.393188477,274.5
220.695663452,311.0
220.998138428,342.4
221.300582886,387.55
221.603042603,430.925
221.905487061,486.4
222.207901001,553.65
222.510299683,622.025
222.812728882,706.85
223.115097046,794.0
223.41746521,885.475
223.719848633,977.375
224.022171021,1074.475
224.324508667,1170.7
224.626846313,1292.7
224.929168701,1397.8
225.231460571,1521.925
225.533737183,1621.625
225.836013794,1734.325
226.138290405,1826.475
226.440536499,1933.125
226.742767334,2037.45
227.044998169,2140.3
227.347213745,2248.9
227.649429321,2330.225
227.951629639,2409.3
228.253799438,2489.225
228.555953979,2551.55
228.858123779,2631.1
229.160263062,2689.4
229.462371826,2735.5
229.764511108,2799.1
230.066619873,2842.4
230.36869812,2912.125
230.670776367,2949.625
230.972854614,3017.325
231.274902344,3081.575
231.576950073,3135.525
231.878967285,3192.825
232.180999756,3254.825
232.48298645,3308.625
232.784988403,3351.55
233.086975098,3402.9
233.388946533,3459.225
233.69090271,3515.875
233.992858887,3549.125
234.294769287,3570.825
234.596694946,3600.1
234.898605347,3643.975
235.200500488,3650.225
235.502380371,3664.8
235.804244995,3672.925
236.106109619,3660.4
236.407958984,3664.9
236.709777832,3667.6
237.011581421,3682.675
237.313400269,3629.025
237.615203857,3645.775
237.916976929,3623.0
238.21875,3631.35
238.520507812,3594.55
238.822250366,3569.95
239.12399292,3540.05
239.425704956,3513.275
239.727401733,3442.875
240.02911377,3444.55
240.330780029,3364.675
240.632446289,3358.425
240.93409729,3299.95
241.23576355,3285.975
241.537384033,3251.9
241.839004517,3223.5
242.140594482,3165.6
242.442199707,3126.0
242.743774414,3107.225
243.045333862,3052.05
243.346923828,3008.325
243.648452759,2970.025
243.949966431,2903.525
244.251495361,2869.425
244.552993774,2817.875
244.854492188,2753.475
245.155975342,2709.625
245.457443237,2664.45
245.758880615,2589.5
246.060333252,2539.675
246.36177063,2464.275
246.66317749,2407.6
246.964569092,2353.7
247.265945435,2280.65
247.567337036,2242.45
247.86869812,2196.2
248.170059204,2154.125
248.471389771,2087.0
248.772705078,2076.525
249.074035645,2041.5
249.375335693,2007.275
249.676620483,1976.5
249.977890015,1943.425
250.279159546,1938.85
250.58039856,1909.075
250.881637573,1857.65
251.182876587,1860.35
251.484069824,1829.5
251.785263062,1820.3
252.086456299,1831.375
252.387619019,1797.025
252.688781738,1786.35
252.989929199,1776.125
253.291061401,1765.5
253.592178345,1760.275
253.893280029,1751.775
254.194366455,1728.05
254.49546814,1731.8
254.796524048,1709.275
255.097579956,1715.3
255.398620605,1701.125
255.699645996,1705.425
256.000640869,1671.225
256.30166626,1686.125
256.602661133,1683.625
256.903656006,1657.825
257.204589844,1657.075
257.505523682,1639.675
257.80645752,1642.4
258.107391357,1631.875
258.408294678,1627.9
258.709228516,1631.025
259.010070801,1613.375
259.310943604,1603.85
259.611846924,1606.45
259.912658691,1598.925
260.213500977,1596.175
260.514343262,1595.15
260.815124512,1589.8
261.115936279,1593.675
261.416717529,1588.1
261.717468262,1602.7
262.018218994,1611.975
262.318969727,1609.55
262.619689941,1632.725
262.920410156,1685.35
263.221130371,1702.3
263.521789551,1740.85
263.822479248,1781.6
264.123138428,1811.1
264.42376709,1843.675
264.72442627,1878.8
265.025054932,1889.775
265.325622559,1942.125
265.626251221,1968.45
265.926818848,1992.95
266.227386475,2003.075
266.527954102,2029.45
266.828460693,2081.475
267.12902832,2069.65
267.429534912,2113.925
267.730010986,2148.05
268.030517578,2158.05
268.330993652,2202.7
268.631439209,2217.7
268.931915283,2250.55
269.232299805,2283.825
269.532745361,2318.825
269.8331604,2347.5
270.133544922,2378.025
270.433929443,2433.5
270.734313965,2462.1
271.034637451,2515.575
271.334991455,2557.0
271.635314941,2629.225
271.935638428,2677.3
272.235931396,2757.9
272.536254883,2810.725
272.836486816,2899.4
273.136749268,2985.45
273.437011719,3098.875
273.737213135,3201.325
274.037445068,3295.575
274.337677002,3382.875
274.6378479,3505.35
274.938049316,3614.525
275.238220215,3716.0
275.538360596,3871.8
275.838500977,3975.375
276.138641357,4122.525
276.438751221,4198.25
276.738830566,4304.4
277.03894043,4428.525
277.338989258,4559.75
277.639038086,4670.55
277.939056396,4779.15
278.239105225,4857.125
278.539093018,4980.075
278.839141846,5072.2
279.139129639,5197.7
279.439086914,5284.0
279.739044189,5397.8
280.039001465,5515.95
280.338928223,5601.375
280.63885498,5665.125
280.938781738,5771.95
281.238647461,5821.225
281.538513184,5900.5
281.838409424,5960.125
282.138244629,6054.8
282.438079834,6123.0
282.737945557,6192.975
283.037719727,6229.45
283.337524414,6301.625
283.637298584,6366.6
283.937072754,6414.95
284.236816406,6444.0
284.536560059,6483.025
284.836303711,6527.825
285.136016846,6600.725
285.43572998,6634.55
285.735412598,6663.225
286.035064697,6707.025
286.334747314,6779.65
286.634368896,6798.15
286.933990479,6761.075
287.233642578,6739.325
287.533203125,6756.15
287.832824707,6726.45
288.132385254,6673.075
288.431945801,6592.725
288.731506348,6497.225
289.031036377,6344.0
289.330566406,6272.75
289.630065918,6283.15
289.92956543,6281.925
290.229034424,6385.575
290.528503418,6518.35
290.827941895,6672.775
291.127380371,6835.625
291.42678833,6929.925
291.726226807,7054.875
292.025604248,7095.925
292.324981689,7172.45
292.624359131,7174.45
292.923736572,7161.75
293.223052979,7206.025
293.522369385,7226.4
293.821685791,7202.475
294.12097168,7163.7
294.420257568,7159.175
294.719543457,7166.65
295.018768311,7130.575
295.318023682,7086.825
295.617248535,7031.725
295.916442871,6998.125
296.215667725,6932.925
296.514862061,6792.025
296.813995361,6646.825
297.11315918,6450.75
297.412322998,6347.7
297.711425781,6303.75
298.010559082,6481.075
298.309631348,6663.95
298.608734131,6851.1
298.907806396,7026.625
299.206848145,7164.275
299.505889893,7204.675
299.804901123,7333.025
300.103912354,7383.65
300.402954102,7472.225
300.701904297,7523.175
301.00088501,7599.825
301.299835205,7669.225
301.5987854,7690.225
301.897735596,7748.85
302.196624756,7816.925
302.495513916,7875.95
302.794403076,7926.85
303.093292236,7970.9
303.392120361,8053.7
303.690979004,8114.675
303.989837646,8144.725
304.288604736,8187.475
304.587402344,8195.025
304.886199951,8207.15
305.184967041,8273.05
305.483734131,8322.45
305.782501221,8324.175
306.081176758,8366.375
306.37991333,8385.65
306.678619385,8385.525
306.977294922,8409.7
307.275970459,8425.8
307.574645996,8459.525
307.873260498,8442.65
308.171875,8459.9
308.470489502,8460.525
308.769104004,8374.35
309.067687988,8396.625
309.366241455,8399.1
309.664794922,8340.975
309.963348389,8338.15
310.261871338,8354.325
310.560394287,8356.475
310.858856201,8387.325
311.157348633,8391.65
311.455810547,8412.675
311.754272461,8454.675
312.052703857,8510.825
312.351135254,8532.075
312.649536133,8535.625
312.947937012,8498.1
313.246307373,8556.85
313.544647217,8551.175
313.843017578,8485.75
314.141387939,8496.4
314.439697266,8510.65
314.738006592,8437.1
315.036315918,8365.45
315.334564209,8303.15
315.6328125,8241.175
315.931091309,8184.125
316.229309082,8083.225
316.527526855,7963.725
316.825744629,7918.125
317.123901367,7830.3
317.422088623,7784.225
317.720245361,7791.375
318.0184021,7825.4
318.316497803,7859.15
318.614654541,7874.125
318.912750244,7972.5
319.21081543,7952.45
319.50894165,7973.075
319.806945801,7995.725
320.104980469,8001.0
320.403045654,7981.1
320.701049805,7960.8
320.999023438,7943.425
321.297027588,7896.8
321.595001221,7878.25
321.892913818,7855.2
322.190887451,7783.025
322.488830566,7726.875
322.786712646,7704.175
323.084625244,7623.05
323.382507324,7610.1
323.680358887,7512.325
323.978210449,7417.85
324.276062012,7417.25
324.573852539,7355.6
324.871643066,7322.125
325.169464111,7243.65
325.467224121,7197.55
325.764984131,7103.05
326.062744141,7056.9
326.360473633,6977.775
326.658203125,6937.2
326.955871582,6868.925
327.253570557,6779.925
327.551239014,6764.025
327.848907471,6688.1
328.146514893,6625.35
328.444152832,6538.625
328.741790771,6527.025
329.039367676,6466.125
329.336914062,6398.725
329.634521484,6352.675
329.932067871,6325.475
330.229553223,6240.95
330.527160645,6170.75
330.824615479,6166.55
331.12210083,6072.525
331.419586182,5960.875
331.717041016,5910.85
332.014465332,5840.65
332.311920166,5786.525
332.609313965,5752.3
332.906707764,5725.875
333.204101562,5741.0
333.501495361,5745.275
333.798828125,5795.2
334.096160889,5812.275
334.39352417,5866.025
334.690795898,5913.575
334.988098145,5955.7
335.285400391,6026.675
335.582641602,6012.975
335.879882812,6056.9
336.177124023,6049.5
336.474334717,6159.2
336.77154541,6126.275
337.068725586,6146.525
337.365905762,6161.025
337.66305542,6173.825
337.960205078,6206.325
338.257324219,6187.05
338.554443359,6206.325
338.8515625,6228.8
339.148590088,6223.5
339.445648193,6225.675
339.742736816,6192.925
340.039764404,6193.925
340.336761475,6169.425
340.63381958,6113.825
340.930755615,6055.45
341.227722168,6019.975
341.524688721,5924.875
341.821624756,5886.95
342.118560791,5939.85
342.415496826,5996.95
342.712402344,6087.675
343.009246826,6253.975
343.306121826,6372.275
343.602966309,6387.125
343.899810791,6488.525
344.196624756,6549.55
344.493438721,6591.65
344.79019165,6630.075
345.086975098,6666.85
345.383758545,6711.925
345.680480957,6703.2
345.977203369,6719.25
346.273956299,6757.925
346.570617676,6753.675
346.86730957,6770.9
347.163970947,6725.65
347.460601807,6768.775
347.757232666,6785.4
348.053894043,6771.5
348.350463867,6707.4
348.647064209,6688.475
348.943634033,6652.225
349.24017334,6650.325
349.536712646,6622.125
349.833251953,6610.525
350.129760742,6594.1
350.426208496,6583.65
350.722747803,6578.925
351.019195557,6530.775
351.315612793,6504.45
351.612060547,6472.65
351.908508301,6397.725
352.204864502,6355.275
352.501281738,6293.55
352.797637939,6241.45
353.093963623,6168.575
353.390319824,6099.9
353.686645508,6029.625
353.982940674,5940.5
354.27923584,5924.4
354.575531006,5851.75
354.871765137,5845.475
355.167999268,5806.375
355.464233398,5811.375
355.760437012,5832.225
356.056640625,5806.4
356.352813721,5829.65
356.648956299,5803.675
356.945129395,5839.725
357.241271973,5807.85
357.537384033,5837.725
357.833496094,5788.15
358.129577637,5751.125
358.425628662,5725.85
358.721679688,5703.125
359.017730713,5668.8
359.313720703,5601.425
359.609710693,5576.2
359.905761719,5520.1
360.201721191,5495.175
360.497650146,5428.425
360.793609619,5385.45
361.089538574,5309.125
361.385437012,5253.975
361.681365967,5183.175
361.977233887,5135.175
362.273071289,5093.1
362.568908691,5002.675
362.864746094,4865.425
363.160552979,4750.2
363.456359863,4585.875
363.752166748,4456.85
364.047912598,4359.6
364.343658447,4334.125
364.639434814,4358.925
364.935119629,4392.275
365.230834961,4430.175
365.526550293,4475.575
365.822174072,4466.875
366.117858887,4463.675
366.413482666,4498.65
366.709075928,4518.7
367.004730225,4456.125
367.300292969,4428.2
367.595855713,4469.4
367.891448975,4350.35
368.186981201,4260.425
368.482513428,4226.9
368.778015137,4207.325
369.073547363,4165.2
369.36895752,4183.0
369.664428711,4069.85
369.95993042,3965.75
370.255310059,3917.475
370.550720215,3893.9
370.846160889,3877.8
371.14151001,3816.525
371.436859131,3794.275
371.73223877,3764.65
372.027557373,3731.8
372.322875977,3682.65
372.618164062,3648.75
372.913482666,3621.125
373.208709717,3586.425
373.503967285,3526.45
373.799194336,3479.3
374.094421387,3494.15
374.389648438,3457.125
374.684844971,3458.375
374.979980469,3463.15
375.275146484,3486.675
375.570281982,3500.325
375.865386963,3504.45
376.160522461,3441.075
376.455596924,3457.85
376.750640869,3524.025
377.045715332,3529.15
377.340759277,3561.25
377.635772705,3611.65
377.93081665,3630.525
378.225769043,3676.25
378.520751953,3720.275
378.815734863,3692.375
379.110656738,3815.7
379.405548096,3968.125
379.700500488,3829.275
379.995391846,3660.45
380.290252686,3680.075
380.585083008,3777.825
380.879974365,3790.075
381.17477417,3707.275
381.469543457,3674.9
381.764404297,3646.4
382.059143066,3676.3
382.353912354,3756.9
382.648651123,3819.75
382.943389893,3789.325
383.238067627,3634.275
383.532775879,3656.175
383.827484131,3582.4
384.12210083,3588.175
384.416778564,3558.375
384.711425781,3452.3
385.006011963,3476.525
385.300628662,3463.95
385.595184326,3531.85
385.88973999,3592.05
386.184295654,3687.05
386.478820801,3754.15
386.77331543,3811.9
387.067840576,3916.55
387.362335205,4002.175
387.656768799,4039.6
387.951202393,4080.775
388.245635986,4137.725
388.540039062,4189.325
388.834472656,4256.15
389.128875732,4153.65
389.423187256,3966.225
389.717559814,3932.825
390.011871338,4008.325
390.306182861,4037.525
390.600463867,4050.05
390.894775391,4097.3
391.189025879,4125.35
391.48324585,4126.05
391.777526855,4155.975
392.071685791,4319.45
392.365875244,4415.875
392.660064697,4473.0
392.95425415,4739.55
393.248382568,4746.55
393.542510986,4341.8
393.836608887,4176.125
394.130706787,4187.3
394.424804688,4143.525
394.71887207,4254.15
395.012878418,4212.625
395.306915283,4123.925
395.600921631,4061.525
395.894927979,4026.75
396.188903809,4093.825
396.482879639,4107.875
396.776794434,4268.65
397.070739746,4227.125
397.364654541,4255.525
397.658538818,4571.225
397.952423096,4618.85
398.246307373,4560.375
398.540100098,5030.75
398.833953857,4921.725
399.127746582,4500.225
399.421508789,4498.05
399.715301514,4462.175
400.009063721,4400.9
400.30279541,4266.425
400.596496582,4188.2
400.890258789,4347.475
401.183929443,4403.775
401.47756958,4303.425
401.771240234,4127.5
402.064880371,4140.725
402.35848999,4176.425
402.652130127,4089.65
402.945678711,4138.75
403.239257812,4107.0
403.532775879,4068.0
403.82635498,4116.65
404.119842529,4041.325
404.413360596,4037.575
404.706848145,4077.75
405.000274658,4027.025
405.293762207,4099.475
405.587188721,4129.4
405.880584717,4002.2
406.17401123,3847.0
406.467407227,3686.625
406.760742188,3691.375
407.054107666,3723.025
407.347442627,3671.775
407.640716553,3656.15
407.934051514,3708.725
408.227325439,3773.125
408.520568848,3945.75
408.813842773,4030.95
409.107086182,3852.25
409.400238037,3826.225
409.693450928,3761.075
409.986633301,3867.65
410.279754639,3813.55
410.572875977,3546.975
410.86605835,3507.225
411.159118652,3519.65
411.452209473,3535.75
411.745330811,3413.55
412.038360596,3336.55
412.331390381,3365.675
412.624420166,3414.275
412.917388916,3327.775
413.210388184,3183.825
413.503387451,3148.825
413.796295166,3072.65
414.089233398,2931.075
414.382141113,2866.05
414.675048828,2845.6
414.967926025,2897.85
415.260803223,2848.925
415.55368042,2858.775
415.846466064,2824.825
416.139282227,2903.525
416.432098389,3022.2
416.724853516,2998.225
417.017608643,2949.75
417.31036377,2955.325
417.603088379,3076.55
417.895782471,3067.075
418.188476562,3022.425
418.481140137,3096.2
418.773803711,3150.625
419.066436768,3127.925
419.359039307,3198.625
419.651641846,3202.65
419.944244385,3206.4
420.236816406,3172.025
420.529327393,3350.75
420.821899414,3415.375
421.114379883,3345.25
421.406860352,3597.125
421.699371338,3790.925
421.991821289,3751.775
422.284240723,3574.275
422.576721191,3449.7
422.869110107,3354.725
423.161468506,3321.25
423.453857422,3351.675
423.74621582,3244.175
424.038543701,3124.225
424.330871582,3111.875
424.623168945,3049.6
424.915435791,3181.95
425.207702637,3136.1
425.499969482,3097.8
425.792205811,3040.825
426.084411621,2811.925
426.376617432,2895.025
426.668762207,2970.85
426.9609375,2846.35
427.253082275,2963.625
427.545196533,3310.225
427.837310791,3073.725
428.129425049,2829.35
428.421447754,3020.675
428.713531494,3014.7
429.005554199,3027.075
429.297576904,3024.7
429.589599609,3421.125
429.881561279,3723.775
430.173522949,3507.25
430.465484619,3470.125
430.757415771,3555.8
431.049316406,3337.175
431.341186523,3123.775
431.633117676,3025.225
431.924957275,2758.75
432.21673584,2653.775
432.508636475,2778.575
432.800415039,2812.825
433.092163086,2741.875
433.383972168,2724.825
433.675689697,3348.25
433.967437744,3796.475
434.259155273,2918.375
434.550872803,2645.325
434.842498779,2715.05
435.134185791,2815.175
435.425842285,2841.425
435.717437744,2752.975
436.009063721,2590.225
436.30065918,2728.95
436.592224121,3029.85
436.883758545,2862.55
437.175323486,2612.425
437.466827393,2599.725
437.758331299,2618.05
438.049804688,2626.675
438.341247559,2695.075
438.63269043,2767.1
438.924163818,2754.2
439.215515137,2721.325
439.50692749,2634.65
439.798309326,2611.3
440.089660645,2645.025
440.380981445,2554.7
440.672332764,2556.9
440.963623047,2809.575
441.254882812,3227.725
441.546173096,3385.75
441.837402344,3150.2
442.128631592,2982.625
442.41986084,2971.55
442.711029053,2867.025
443.002197266,2934.825
443.293365479,3094.275
443.584503174,3222.625
443.875610352,3195.325
444.166717529,2971.8
444.457794189,2997.4
444.748840332,2992.85
445.039916992,2941.65
445.330932617,3039.075
445.621948242,2884.1
445.912963867,2718.6
446.203918457,2925.3
446.494812012,3144.55
446.785827637,2950.85
447.076721191,2782.55
447.367584229,2765.1
447.658447266,2738.375
447.949371338,2797.3
448.24017334,2695.625
448.530975342,2603.4
448.821838379,2776.1
449.112579346,2849.275
449.40335083,2773.45
449.694152832,2816.875
449.984863281,2805.25
450.27557373,2745.8
450.56628418,2801.675
450.856933594,2830.225
451.147583008,2690.075
451.438262939,2588.35
451.728881836,2751.475
452.019470215,2859.85
452.310089111,2666.1
452.600646973,2685.125
452.891174316,2739.25
453.181732178,2567.9
453.472229004,2465.55
453.762695312,2549.15
454.053222656,2592.975
454.343658447,2462.9
454.634063721,2428.625
454.924530029,2567.675
455.214935303,2702.45
455.505279541,2768.85
455.795715332,2619.15
456.086029053,2456.975
456.376312256,2450.425
456.666687012,2458.05
456.956939697,2576.7
457.247192383,2552.275
457.537445068,2635.575
457.827728271,2801.575
458.117919922,2737.9
458.408081055,2673.075
458.698303223,2840.55
458.988433838,2784.65
459.278564453,2612.3
459.568725586,2866.7
459.858825684,2980.125
460.148864746,2688.45
460.438995361,2655.475
460.729034424,2703.95
461.019042969,2731.375
461.309082031,2897.5
461.599060059,2788.05
461.889007568,2364.225
462.179016113,2193.575
462.468933105,2414.125
462.75881958,2523.225
463.048736572,2279.05
463.338592529,2522.925
463.628448486,2848.7
463.918365479,2575.175
464.2081604,2740.175
464.497924805,2705.775
464.787780762,2822.2
465.077514648,3116.075
465.367218018,2736.2
465.657012939,2957.275
465.946685791,3324.8
466.236358643,2949.325
466.526092529,2470.2
466.815734863,2449.075
467.105316162,2384.125
467.394927979,2432.125
467.684570312,2283.875
467.974121094,2368.5
468.263671875,2464.15
468.553222656,2267.825
468.842773438,2167.975
469.132232666,2080.3
469.42175293,2100.725
469.711212158,2080.2
470.000640869,1969.025
470.290100098,2002.125
470.579498291,2049.5
470.868835449,2047.725
471.158294678,2004.475
471.447601318,2002.0
471.736907959,2065.425
472.026275635,2125.075
472.315551758,2106.725
472.604797363,2096.425
472.894104004,2219.525
473.183319092,2322.925
473.47253418,2319.4
473.761779785,2309.325
474.05090332,2237.25
474.340087891,2201.525
474.629241943,2142.625
474.918365479,2301.55
475.207427979,2545.975
475.496551514,2570.4
475.785614014,2310.2
476.074645996,2140.425
476.363708496,2231.275
476.652679443,2362.85
476.941650391,2189.65
477.230682373,2046.4
477.519622803,2048.9
477.808502197,2192.45
478.097412109,2450.3
478.386352539,2393.3
478.675201416,2147.225
478.964050293,2045.45
479.25289917,2222.3
479.541717529,2282.95
479.830474854,2140.925
480.11932373,2449.15
480.408050537,2617.575
480.696777344,2261.575
480.985534668,2136.8
481.274200439,2223.15
481.562866211,2456.05
481.851593018,2492.125
482.140197754,2435.85
482.428833008,2282.95
482.717468262,2081.275
483.006011963,2105.55
483.294586182,2227.575
483.5831604,2268.875
483.871673584,2140.25
484.16015625,2273.05
484.448699951,2486.9
484.7371521,2547.05
485.02557373,2551.275
485.314025879,2293.35
485.602416992,3526.05
485.890777588,12578.075
486.179199219,11275.475
486.467559814,3013.15
486.755859375,2187.725
487.044219971,2559.55
487.332519531,2735.9
487.620758057,2335.375
487.908966064,2102.825
488.197265625,1917.975
488.485473633,1825.1
488.773651123,1935.0
489.061859131,1929.75
489.350006104,1873.15
489.638122559,1821.075
489.926300049,1837.8
490.214355469,1801.15
490.502441406,1735.975
490.790527344,1685.825
491.078552246,1871.35
491.366546631,1866.775
491.654602051,1650.2
491.942565918,1710.9
492.230499268,1760.15
492.518493652,1722.525
492.806396484,1762.3
493.094268799,1671.5
493.382202148,1708.575
493.670074463,1838.2
493.957885742,1680.95
494.245727539,1662.375
494.533508301,1825.675
494.821289062,1718.175
495.109100342,1572.725
495.396850586,1527.475
495.684539795,1486.65
495.972290039,1690.625
496.25994873,2007.85
496.547607422,2023.7
496.835296631,1855.25
497.122894287,1541.225
497.410522461,1481.5
497.6980896,1474.9
497.985687256,1439.575
498.273223877,1528.6
498.560760498,1613.775
498.848266602,1631.775
499.135772705,1601.8
499.423217773,1639.9
499.710693359,1727.9
499.998138428,1679.95
500.285522461,1517.15
500.572937012,1447.8
500.860290527,1491.725
501.147644043,1595.225
501.434997559,1811.6
501.722290039,1678.7
502.00958252,1464.825
502.296875,1718.85
502.584106445,1703.175
502.871337891,1533.05
503.158599854,1608.875
503.445770264,1669.225
503.732910156,1651.45
504.020141602,1487.9
504.307220459,1459.55
504.594329834,1487.8
504.881469727,1428.175
505.168518066,1490.6
505.455535889,1563.45
505.742614746,1452.375
506.029632568,1378.925
506.316589355,1567.2
506.603637695,1628.5
506.890563965,1460.85
507.177459717,1311.425
507.464385986,1223.625
507.751312256,1438.95
508.038146973,1510.825
508.325012207,1380.25
508.611877441,1444.1
508.898681641,1452.975
509.185424805,1295.725
509.472259521,1263.975
509.759002686,1332.9
510.045715332,1360.75
510.332458496,1313.075
510.619140625,1372.125
510.905761719,1284.7
511.192504883,1276.125
511.479095459,1317.4
511.765686035,1276.7
512.052307129,1199.55
512.338928223,1145.675
512.625427246,1188.25
512.91204834,1257.025
513.198486328,1229.675
513.484985352,1205.925
513.77142334,1124.725
514.057922363,1171.6
514.344299316,1170.9
514.63079834,1137.975
514.917175293,1119.55
515.203552246,1038.75
515.489868164,1005.725
515.776245117,1125.325
516.0625,1158.125
516.348815918,1071.975
516.635070801,1118.4
516.921325684,1157.025
517.207580566,1103.8
517.493774414,1005.75
517.779968262,1022.975
518.066101074,1051.75
518.352294922,1016.425
518.638366699,1016.575
518.924499512,1094.0
519.210632324,1151.325
519.496643066,1117.9
519.782714844,1038.125
520.068786621,1006.15
520.354736328,964.975
520.640686035,916.375
520.926757812,973.15
521.212646484,1041.35
521.498535156,1045.5
521.784484863,995.95
522.0703125,934.425
522.356262207,946.525
522.642089844,1017.95
522.927856445,1015.025
523.213684082,1001.25
523.499511719,998.925
523.78527832,1023.45
524.070983887,1073.0
524.356750488,1057.65
524.64239502,1021.925
524.928039551,1015.25
525.213806152,1033.8
525.499389648,1022.4
525.784973145,1051.275
526.070617676,1091.175
526.356140137,1056.825
526.641723633,1064.225
526.927307129,1113.1
527.212768555,1122.0
527.498291016,1104.925
527.783752441,1096.975
528.069213867,1087.3
528.354675293,1105.225
528.640014648,1247.825
528.925476074,1303.3
529.21081543,1247.3
529.496154785,1220.575
529.781555176,1197.125
530.066833496,1210.375
530.352050781,1216.7
530.637390137,1210.725
530.922607422,1205.175
531.207824707,1205.85
531.493041992,1191.85
531.778198242,1257.875
532.063354492,1235.225
532.348571777,1180.075
532.633666992,1206.375
532.918762207,1267.7
533.203857422,1349.925
533.488891602,1377.175
533.773925781,1336.4
534.059020996,1301.275
534.343933105,1325.4
534.628967285,1310.65
534.91394043,1317.5
535.198852539,1333.0
535.483703613,1312.875
535.768676758,1260.5
536.053527832,1265.575
536.338317871,1219.775
536.62322998,1172.775
536.90802002,1143.4
537.192810059,1165.75
537.477539062,1235.3
537.762329102,1273.025
538.047058105,1310.25
538.331726074,1339.625
538.616455078,1315.825
538.901123047,1297.05
539.18572998,1351.325
539.470397949,1352.7
539.755004883,1338.2
540.039550781,1315.4
540.32409668,1264.6
540.608703613,1301.825
540.893188477,1382.4
541.17767334,1406.375
541.462158203,1408.2
541.746643066,1364.175
542.031066895,1383.1
542.315429688,1444.775
542.59979248,1442.3
542.884216309,1407.625
543.168579102,1413.675
543.452941895,1422.025
543.737243652,1472.075
544.021484375,1499.125
544.305725098,1498.6
544.590026855,1480.625
544.874267578,1494.65
545.158447266,1559.25
545.442626953,1486.3
545.726806641,1375.675
546.010925293,1408.6
546.29510498,1429.525
546.579162598,1433.2
546.863220215,1462.925
547.147277832,1540.8
547.431335449,1606.325
547.715332031,1656.925
547.999328613,1749.475
548.283325195,1761.825
548.567260742,1624.975
548.851135254,1606.025
549.135070801,1579.025
549.419006348,1518.55
549.702819824,1591.625
549.986755371,1655.3
550.270507812,1621.85
550.554321289,1659.525
550.83807373,1678.65
551.121826172,1635.375
551.405517578,1650.35
551.689331055,1751.175
551.973022461,1968.325
552.256652832,2021.95
552.540344238,1933.175
552.823974609,1906.075
553.107543945,1896.975
553.391174316,1949.375
553.674743652,2001.525
553.958251953,2009.55
554.241821289,2021.725
554.525268555,1956.9
554.808776855,1958.15
555.092285156,2129.75
555.375671387,2209.25
555.659057617,2197.325
555.942504883,2233.8
556.225891113,2254.225
556.509216309,2229.35
556.792541504,2151.1
557.075866699,2221.8
557.359130859,2249.675
557.64239502,2242.325
557.92565918,2325.875
558.208862305,2314.0
558.49206543,2244.65
558.77532959,2256.9
559.058410645,2309.3
559.341552734,2285.425
559.624694824,2353.45
559.907775879,2419.5
560.190856934,2546.925
560.473937988,2518.35
560.756896973,2554.075
561.039978027,2596.85
561.322937012,2549.375
561.605895996,2549.1
561.88885498,2526.875
562.171813965,2528.85
562.454650879,2522.125
562.737548828,2544.425
563.020446777,2607.95
563.303283691,2626.325
563.58605957,2659.425
563.868896484,2681.725
564.151672363,2717.175
564.434387207,2753.675
564.717163086,2730.725
564.99987793,2763.425
565.282531738,2823.55
565.565185547,2763.075
565.847839355,2781.25
566.130432129,2892.4
566.413085938,2862.25
566.695678711,2881.2
566.978149414,2979.975
567.260681152,3126.175
567.543273926,3184.175
567.825744629,3102.875
568.108154297,3144.075
568.390686035,3266.125
568.673095703,3355.925
568.955505371,3417.4
569.237854004,3454.55
569.520202637,3709.05
569.802490234,3903.85
570.084838867,3868.375
570.367126465,3734.0
570.649414062,3746.1
570.93170166,4075.3
571.213928223,4140.15
571.496154785,3931.275
571.778381348,4131.65
572.06048584,4372.875
572.342590332,3965.35
572.624755859,3617.925
572.906860352,3679.25
573.188903809,4298.525
573.470947266,4556.675
573.752990723,4338.425
574.03503418,4423.55
574.317016602,4802.35
574.598937988,4583.55
574.88092041,4478.75
575.162841797,4673.575
575.444763184,4306.625
575.726623535,4059.525
576.008483887,4111.25
576.290344238,4495.225
576.572143555,4698.55
576.853881836,4767.15
577.135681152,4657.375
577.417419434,4714.35
577.699157715,5540.475
577.980895996,5698.65
578.262573242,5080.425
578.544128418,4629.975
578.825866699,4572.975
579.107421875,4287.175
579.388977051,4443.175
579.670593262,4834.3
579.952148438,4699.375
580.233642578,4786.625
580.515197754,4880.375
580.796691895,4615.575
581.078125,4776.65
581.359619141,6204.775
581.640991211,6314.525
581.922363281,5451.425
582.203796387,5504.325
582.485107422,5153.25
582.766418457,4786.125
583.047790527,4621.4
583.329040527,4534.25
583.610290527,4381.8
583.891540527,4492.925
584.172790527,4805.125
584.453918457,4814.975
584.735107422,4866.85
585.016235352,5317.625
585.297363281,5294.85
585.578552246,5120.8
585.859619141,5057.475
586.140625,4838.05
586.421630859,4705.8
586.702697754,4739.525
586.983642578,4965.55
587.264648438,5143.775
587.545654297,5083.25
587.826477051,5033.1
588.107421875,4836.325
588.388305664,4895.55
588.669189453,4966.625
588.950012207,4830.55
589.230834961,4746.475
589.511657715,4837.1
589.792358398,4927.975
590.073120117,4934.475
590.353881836,4918.225
590.63458252,4904.475
590.915283203,4887.775
591.195922852,4876.9
591.4765625,4912.225
591.757202148,4955.5
592.037780762,4946.8
592.31829834,4959.25
592.598937988,5149.7
592.879394531,5320.4
593.159912109,5223.0
593.440429688,5177.075
593.720825195,5154.775
594.001281738,5155.5
594.281677246,5059.8
594.562072754,5076.1
594.842407227,5186.825
595.122802734,5216.825
595.403137207,5187.925
595.683410645,5185.125
595.963623047,5174.975
596.243896484,5136.7
596.524169922,5120.725
596.804382324,5143.45
597.084533691,5192.1
597.364746094,5201.075
597.644836426,5249.55
597.924987793,5223.375
598.205078125,5183.35
598.485107422,5220.475
598.765197754,5345.4
599.045227051,5405.85
599.325195312,5320.8
599.605224609,5268.575
599.885192871,5300.575
600.165100098,5330.85
600.445007324,5302.075
600.724914551,5310.825
601.004760742,5325.425
601.284667969,5330.225
601.56451416,5318.975
601.844238281,5304.1
602.124084473,5330.55
602.403808594,5328.975
602.683532715,5367.3
602.963256836,5341.425
603.242919922,5426.2
603.522583008,5465.75
603.802246094,5420.65
604.081848145,5380.725
604.36138916,5353.425
604.641052246,5393.475
604.920532227,5394.175
605.200073242,5411.9
605.479614258,5432.175
605.759094238,5471.125
606.038574219,5484.475
606.317932129,5422.4
606.597412109,5406.1
606.87677002,5424.4
607.15612793,5465.175
607.435546875,5485.05
607.714782715,5482.65
607.99407959,5457.675
608.273376465,5432.725
608.552612305,5448.5
608.831848145,5460.15
609.111083984,5463.925
609.390258789,5428.875
609.669433594,5451.05
609.948608398,5515.225
610.227722168,5487.825
610.506713867,5427.775
610.785888672,5442.525
611.064880371,5415.15
611.34387207,5460.525
611.622924805,5467.0
611.901916504,5459.95
612.180847168,5398.575
612.459777832,5420.675
612.738647461,5425.025
613.01751709,5403.675
613.296447754,5360.925
613.575317383,5336.65
613.854064941,5288.65
614.132873535,5213.9
614.411621094,5177.225
614.690368652,5098.7
614.969177246,5054.475
615.247802734,4971.05
615.526489258,4959.275
615.805175781,4847.6
616.08380127,4751.7
616.362365723,4668.7
616.640991211,4630.375
616.919555664,4569.4
617.198059082,4700.525
617.4765625,4976.7
617.755126953,5107.625
618.033569336,5122.8
618.311950684,5127.85
618.590454102,5112.375
618.868774414,5118.425
619.147155762,5137.3
619.425598145,5099.05
619.703857422,5116.325
619.982177734,5114.275
620.260498047,5095.575
620.538757324,5091.925
620.816955566,5077.1
621.095214844,5018.025
621.373413086,5059.175
621.651550293,5115.525
621.929748535,5135.925
622.207824707,5114.25
622.485900879,5123.375
622.764038086,5134.425
623.042053223,5181.3
623.320007324,5190.475
623.598083496,5208.225
623.876037598,5169.875
624.153991699,5191.475
624.432006836,5212.35
624.709838867,5227.1
624.987731934,5205.325
625.265563965,5217.1
625.543395996,5241.875
625.821228027,5307.35
626.098999023,5286.475
626.376831055,5315.775
626.654541016,5347.3
626.932250977,5385.625
627.209960938,5419.9
627.487670898,5448.7
627.765319824,5467.175
628.04296875,5451.9
628.320495605,5481.625
628.598083496,5484.4
628.875671387,5523.75
629.153259277,5534.55
629.430725098,5609.05
629.708251953,5590.1
629.985656738,5650.175
630.263122559,5672.5
630.540588379,5702.825
630.817932129,5719.525
631.095275879,5752.65
631.372680664,5784.15
631.649963379,5826.575
631.927246094,5877.725
632.204589844,5914.675
632.481811523,5977.8
632.759033203,6054.4
633.036254883,6071.0
633.313415527,6160.025
633.590576172,6224.5
633.867736816,6322.75
634.144836426,6372.45
634.421875,6423.075
634.698913574,6507.125
634.976013184,6547.45
635.252990723,6634.425
635.529968262,6657.8
635.807006836,6712.75
636.08392334,6714.275
636.360839844,6628.1
636.637756348,6519.925
636.914611816,6482.45
637.191467285,6468.45
637.468261719,6579.025
637.745056152,6534.6
638.021789551,6581.925
638.298583984,6573.475
638.575317383,6596.025
638.851989746,6616.075
639.12878418,6589.775
639.405395508,6606.275
639.682006836,6643.15
639.958618164,6662.6
640.235229492,6632.975
640.511779785,6692.675
640.788330078,6656.125
641.064880371,6661.8
641.341308594,6638.85
641.617797852,6659.675
641.894226074,6682.75
642.170654297,6700.9
642.44708252,6696.45
642.723388672,6673.225
642.999755859,6670.825
643.276123047,6693.3
643.552429199,6676.35
643.828674316,6701.05
644.104919434,6639.625
644.381164551,6656.1
644.657348633,6678.575
644.933532715,6630.5
645.209716797,6651.2
645.485839844,6642.95
645.761901855,6660.375
646.038024902,6616.975
646.314086914,6667.45
646.590087891,6649.575
646.866149902,6660.475
647.142150879,6642.075
647.41809082,6615.325
647.694030762,6622.7
647.969970703,6613.25
648.245788574,6639.65
648.521728516,6630.725
648.797546387,6621.425
649.073303223,6629.675
649.349182129,6600.65
649.624938965,6602.125
649.900634766,6623.275
650.176391602,6617.275
650.452087402,6582.55
650.727783203,6608.775
651.003479004,6610.375
651.279052734,6590.65
651.554626465,6587.325
651.83026123,6594.425
652.105773926,6618.075
652.381286621,6579.5
652.656860352,6571.45
652.932312012,6607.0
653.207763672,6631.725
653.483215332,6667.15
653.758605957,6641.425
654.033935547,6657.675
654.309326172,6667.825
654.584716797,6668.075
654.859985352,6635.025
655.135253906,6682.975
655.410583496,6689.375
655.685791016,7708.3
655.9609375,12027.65
656.236206055,11786.625
656.511291504,7832.475
656.786437988,6863.85
657.061645508,6770.35
657.336669922,6739.05
657.611694336,6770.85
657.886779785,6795.0
658.161804199,6810.825
658.436828613,6768.525
658.711791992,6793.325
658.986755371,6810.575
659.261657715,6829.425
659.536621094,6848.25
659.811401367,6840.475
660.086303711,6881.0
660.36114502,6878.825
660.635864258,6878.1
660.910644531,6912.25
661.185424805,6910.35
661.460205078,6933.9
661.734863281,6926.025
662.009521484,6913.725
662.284179688,6941.1
662.558776855,7002.825
662.833435059,7002.65
663.108032227,7003.975
663.382568359,6971.275
663.657043457,7058.45
663.93157959,7102.0
664.206054688,7059.975
664.48046875,7091.625
664.755004883,7132.775
665.02935791,7159.95
665.303710938,7160.85
665.578125,7189.275
665.852416992,7200.05
666.126708984,7210.075
666.401062012,7234.675
666.675292969,7271.175
666.949462891,7257.55
667.223754883,7275.575
667.497924805,7308.25
667.772094727,7314.525
668.046264648,7285.825
668.3203125,7364.15
668.594421387,7346.35
668.868469238,7379.375
669.14251709,7411.575
669.416503906,7418.9
669.690551758,7451.8
669.964477539,7439.825
670.23840332,7470.2
670.512329102,7468.225
670.786254883,7435.225
671.060058594,7546.875
671.333984375,7533.125
671.607788086,7559.4
671.881530762,7581.55
672.155334473,7595.575
672.429077148,7595.15
672.702758789,7623.975
672.97644043,7610.975
673.25012207,7603.6
673.523742676,7614.975
673.797302246,7638.925
674.070922852,7697.4
674.344482422,7684.3
674.618041992,7683.325
674.891601562,7670.9
675.165100098,7727.125
675.438476562,7724.7
675.711975098,7736.775
675.985412598,7723.25
676.258789062,7741.2
676.532165527,7766.225
676.805480957,7742.4
677.078796387,7743.425
677.352111816,7797.45
677.625366211,7790.425
677.898620605,7773.025
678.171875,7829.55
678.445007324,7828.4
678.718200684,7880.025
678.991394043,7835.55
679.264404297,7860.2
679.537536621,7894.85
679.81060791,7912.7
680.083679199,7940.0
680.356689453,7950.475
680.629699707,7968.0
680.902648926,7917.35
681.175598145,7986.475
681.448547363,8001.625
681.721435547,7986.075
681.99420166,8004.425
682.267150879,8004.15
682.539916992,8059.3
682.812744141,8026.5
683.085510254,8029.925
683.358215332,8051.625
683.63092041,8049.475
683.903625488,8071.05
684.176330566,8050.1
684.448913574,8031.675
684.721557617,8031.65
684.99420166,8100.95
685.266662598,8073.05
685.539245605,8107.425
685.811767578,8142.15
686.084289551,8159.05
686.356689453,8171.375
686.629150391,8205.9
686.901550293,8223.45
687.17401123,8237.4
687.446350098,8266.825
687.718688965,8255.475
687.990966797,8330.1
688.263305664,8328.575
688.535522461,8282.475
688.807739258,8304.825
689.079956055,8370.175
689.352172852,8397.925
689.624328613,8416.075
689.896484375,8428.125
690.168518066,8407.975
690.440612793,8431.1
690.71270752,8492.6
690.984741211,8486.2
691.256713867,8489.325
691.528747559,8481.575
691.800720215,8510.85
692.072631836,8532.85
692.344543457,8560.3
692.616394043,8555.0
692.888244629,8604.15
693.160095215,8643.725
693.431945801,8677.675
693.703674316,8652.025
693.975463867,8631.35
694.247131348,8701.85
694.518859863,8710.6
694.790588379,8743.875
695.062255859,8745.75
695.33380127,8747.25
695.60546875,8727.25
695.87701416,8743.0
696.148498535,8767.2
696.42010498,8801.825
696.691589355,8833.075
696.96307373,8841.675
697.234558105,8881.675
697.50592041,8892.475
697.777282715,8870.0
698.048706055,8899.425
698.320068359,8954.925
698.591308594,8919.0
698.862670898,8915.15
699.133972168,8979.075
699.405151367,8933.325
699.676391602,9002.975
699.947570801,8956.775
700.21875,9015.925
700.489868164,9010.375
700.761047363,8970.475
701.032104492,9041.15
701.303100586,8988.2
701.57421875,9087.775
701.845214844,9075.8
702.116149902,9104.6
702.387207031,9112.725
702.65814209,9130.425
702.928955078,9156.675
703.199951172,9129.0
703.47076416,9105.25
703.741577148,9098.125
704.012451172,9160.0
704.28314209,9160.1
704.553955078,9149.45
704.824707031,9198.275
705.095397949,9226.25
705.366027832,9208.325
705.63671875,9234.725
705.907348633,9215.55
706.17791748,9224.05
706.448486328,9256.7
706.719055176,9293.2
706.989562988,9295.325
707.260131836,9344.875
707.530517578,9306.85
707.800964355,9319.55
708.071411133,9304.9
708.341796875,9324.35
708.612182617,9294.925
708.882446289,9279.525
709.152893066,9335.375
709.423156738,9347.875
709.693359375,9305.15
709.963623047,9302.4
710.233825684,9357.2
710.503967285,9341.075
710.774169922,9355.225
711.044311523,9345.85
711.31439209,9339.575
711.584533691,9396.0
711.854553223,9400.45
712.124572754,9415.125
712.39465332,9356.025
712.664611816,9389.05
712.934509277,9468.875
713.204467773,9401.425
713.474365234,9435.6
713.74420166,9440.175
714.014099121,9475.675
714.283874512,9492.7
714.553710938,9487.725
714.823486328,9466.175
715.093200684,9464.425
715.362915039,9489.2
715.632629395,9493.025
715.902282715,9457.375
716.171875,9452.225
716.441589355,9502.125
716.711181641,9446.825
716.980712891,9474.1
717.250244141,9464.0
717.519775391,9481.825
717.78918457,9484.3
718.058654785,9529.0
718.328125,9579.775
718.597473145,9494.25
718.866882324,9511.0
719.136230469,9493.6
719.405578613,9536.2
719.674865723,9571.7
719.944152832,9536.9
720.213439941,9516.1
720.48260498,9579.15
720.75177002,9594.6
721.020996094,9586.575
721.290100098,9584.275
721.559204102,9560.9
721.828308105,9572.7
722.097351074,9576.025
722.366455078,9552.75
722.635437012,9562.75
722.904418945,9500.275
723.173400879,9550.225
723.442321777,9595.65
723.711181641,9561.45
723.980102539,9612.95
724.248962402,9587.8
724.51776123,9584.1
724.786560059,9593.25
725.055358887,9595.425
725.324035645,9613.8
725.592834473,9613.45
725.86151123,9571.0
726.130187988,9593.15
726.398803711,9583.0
726.667419434,9584.85
726.935974121,9556.775
727.204528809,9515.675
727.473083496,9513.15
727.741638184,9513.625
728.010070801,9482.5
728.278564453,9481.95
728.546936035,9482.4
728.815368652,9427.55
729.08380127,9368.925
729.352111816,9304.55
729.620361328,9256.775
729.88873291,9315.925
730.156982422,9357.05
730.425231934,9341.75
730.693481445,9353.95
730.961669922,9441.025
731.229797363,9456.35
731.49798584,9475.95
731.766113281,9542.275
732.034118652,9648.55
732.302246094,9677.85
732.570251465,9698.4
732.838256836,9723.975
733.106262207,9840.025
733.374145508,9852.4
733.642089844,9901.1
733.909973145,9934.575
734.177856445,10041.3
734.445678711,10112.875
734.713562012,10222.85
734.981323242,10210.025
735.249084473,10235.7
735.516845703,10441.625
735.784545898,10507.3
736.052185059,10554.85
736.319885254,10675.525
736.587524414,10724.625
736.855102539,10788.975
737.122619629,10913.8
737.390197754,10954.75
737.657714844,11058.6
737.925170898,11133.2
738.192749023,11251.5
738.460144043,11349.475
738.727539062,11353.125
738.994995117,11500.325
739.262329102,11551.15
739.529663086,11699.075
739.79699707,11720.6
740.06427002,11819.3
740.331481934,11888.425
740.598754883,11968.325
740.865905762,11971.375
741.133056641,12107.325
741.40032959,12133.875
741.667358398,12247.675
741.934448242,12262.75
742.201599121,12291.9
742.468566895,12388.725
742.735534668,12449.625
743.002563477,12489.475
743.26953125,12503.575
743.536437988,12597.325
743.803405762,12668.3
744.0703125,12631.4
744.337097168,12735.825
744.604003906,12682.425
744.870727539,12749.825
745.137512207,12788.275
745.40423584,12837.7
745.670959473,12797.925
745.93762207,12832.85
746.204284668,12821.6
746.470947266,12873.275
746.737548828,12826.525
747.004089355,12852.1
747.270751953,12862.75
747.53717041,12911.95
747.803710938,12865.825
748.070251465,12866.225
748.336608887,12880.4
748.603027344,12843.225
748.869445801,12851.575
749.135803223,12850.0
749.402099609,12893.35
749.668457031,12885.725
749.934753418,12821.875
750.20098877,12792.25
750.467224121,12879.125
750.733459473,12812.775
750.999572754,12791.5
751.26574707,12661.325
751.531860352,12748.7
751.797912598,12736.275
752.064025879,12645.85
752.330078125,12696.15
752.596069336,12637.625
752.862060547,12571.35
753.127990723,12596.175
753.393920898,12571.575
753.659912109,12498.125
753.925720215,12526.425
754.19152832,12499.5
754.457397461,12427.25
754.723144531,12413.4
754.988952637,12370.2
755.254699707,12383.725
755.520385742,12410.0
755.786071777,12391.825
756.051696777,12349.35
756.317382812,12295.65
756.582946777,12242.0
756.848510742,12288.65
757.114074707,12201.4
757.379577637,12173.825
757.645080566,12302.275
757.910583496,12259.225
758.175964355,12156.55
758.441345215,12146.8
758.706848145,11970.55
758.972106934,11996.525
759.237426758,12074.2
759.502807617,12071.575
759.768005371,12028.25
760.03326416,12008.875
760.298522949,11959.625
760.563659668,12000.275
760.828857422,11924.65
761.093994141,11951.425
761.359130859,11907.8
761.624206543,11913.525
761.889282227,11851.975
762.15423584,11806.25
762.419250488,11834.775
762.684265137,11747.7
762.949157715,11739.75
763.214050293,11687.125
763.479003906,11638.525
763.743835449,11635.625
764.008666992,11606.875
764.2734375,11623.325
764.538208008,11645.825
764.802978516,11687.475
765.067687988,11636.4
765.332397461,11607.675
765.597045898,11549.525
765.861694336,11521.275
766.126342773,11472.35
766.390930176,11460.125
766.655395508,11420.075
766.920043945,11383.6
767.184509277,11380.475
767.448974609,11382.175
767.713439941,11384.75
767.977783203,11336.2
768.2421875,11380.25
768.506591797,11292.425
768.770874023,11418.9
769.03515625,11359.4
769.299499512,11340.225
769.563720703,11308.775
769.827941895,11241.55
770.092163086,11246.7
770.356323242,11203.7
770.620483398,11264.1
770.88458252,11275.525
771.148681641,11246.0
771.412719727,11190.55
771.676757812,11241.875
771.940734863,11161.175
772.204711914,11163.9
772.468688965,11130.45
772.73260498,11138.3
772.996459961,11152.6
773.260314941,9947.55
773.524169922,1252.85
773.787963867,152.925
774.051696777,120.575
774.315551758,118.375
774.579223633,121.1
774.842895508,117.7
775.106567383,121.6
775.370239258,116.075
775.633789062,121.2
775.897399902,123.125
776.160949707,116.575
776.424499512,120.3
776.687988281,122.325
776.951477051,121.35
777.214904785,118.95
777.47833252,121.5
