191.299911499,98.4
191.603515625,101.575
191.907119751,95.2
192.210693359,102.4
192.514251709,94.95
192.817810059,102.6
193.121368408,101.925
193.42489624,104.4
193.728408813,98.25
194.031936646,97.75
194.33543396,91.825
194.638916016,110.0
194.94241333,96.825
195.245880127,97.05
195.549331665,94.55
195.852767944,99.2
196.156204224,203.05
196.459625244,188.275
196.763015747,195.15
197.066436768,201.65
197.369812012,193.5
197.673187256,197.9
197.9765625,188.65
198.279922485,195.95
198.583251953,190.275
198.886581421,195.95
199.18989563,202.075
199.493209839,197.15
199.79649353,186.375
200.09979248,199.5
200.403076172,193.8
200.706314087,198.975
201.009567261,195.875
201.312820435,195.2
201.616027832,188.975
201.919235229,181.125
202.222457886,190.35
202.525634766,190.725
202.828826904,182.5
203.132003784,180.575
203.435150146,187.15
203.738296509,187.95
204.041412354,182.825
204.344558716,190.1
204.647659302,190.6
204.950759888,189.7
205.253845215,189.275
205.556930542,187.9
205.859985352,188.825
206.163024902,187.475
206.466079712,191.375
206.769104004,201.975
207.072113037,192.4
207.375137329,194.15
207.678131104,192.525
207.981109619,193.75
208.284088135,184.15
208.587036133,192.85
208.889984131,191.65
209.19291687,196.2
209.495849609,199.275
209.798751831,200.075
210.101654053,196.125
210.404556274,199.05
210.707427979,198.8
211.010269165,203.7
211.31312561,202.35
211.615982056,197.675
211.918807983,204.025
212.221618652,201.0
212.524429321,197.725
212.827224731,209.05
213.130004883,205.875
213.432769775,208.3
213.735534668,208.675
214.038269043,212.175
214.341003418,209.2
214.643737793,215.2
214.946456909,215.4
215.249145508,215.775
215.551834106,216.55
215.854507446,217.6
216.157165527,219.475
216.45980835,217.575
216.762451172,224.775
217.065078735,224.325
217.36769104,229.075
217.670303345,228.825
217.972885132,238.45
218.275466919,235.325
218.578048706,228.675
218.880599976,240.7
219.183120728,239.4
219.485656738,241.625
219.788192749,251.825
220.090682983,264.375
220.393188477,275.075
220.695663452,306.45
220.998138428,320.5
221.300582886,362.775
221.603042603,390.275
221.905487061,438.075
222.207901001,501.5
222.510299683,567.9
222.812728882,643.15
223.115097046,721.775
223.41746521,818.225
223.719848633,909.15
224.022171021,1009.1
224.324508667,1125.35
224.626846313,1243.425
224.929168701,1373.75
225.231460571,1499.6
225.533737183,1621.7
225.836013794,1754.775
226.138290405,1874.35
226.440536499,2002.625
226.742767334,2125.075
227.044998169,2226.8
227.347213745,2368.025
227.649429321,2475.775
227.951629639,2562.1
228.253799438,2659.175
228.555953979,2770.075
228.858123779,2857.975
229.160263062,2959.525
229.462371826,3041.375
229.764511108,3112.075
230.066619873,3159.975
230.36869812,3267.6
230.670776367,3321.175
230.972854614,3420.975
231.274902344,3482.575
231.576950073,3569.8
231.878967285,3652.7
232.180999756,3747.825
232.48298645,3816.775
232.784988403,3900.0
233.086975098,4018.125
233.388946533,4058.7
233.69090271,4162.0
233.992858887,4232.65
234.294769287,4287.2
234.596694946,4381.8
234.898605347,4429.85
235.200500488,4481.4
235.502380371,4555.175
235.804244995,4618.35
236.106109619,4613.65
236.407958984,4684.9
236.709777832,4733.2
237.011581421,4794.275
237.313400269,4799.95
237.615203857,4840.8
237.916976929,4905.475
238.21875,4904.525
238.520507812,4949.875
238.822250366,4998.85
239.12399292,5006.075
239.425704956,5056.0
239.727401733,5056.7
240.02911377,5104.575
240.330780029,5105.1
240.632446289,5165.525
240.93409729,5187.25
241.23576355,5207.1
241.537384033,5278.75
241.839004517,5297.65
242.140594482,5337.175
242.442199707,5392.5
242.743774414,5421.1
243.045333862,5480.325
243.346923828,5511.8
243.648452759,5553.425
243.949966431,5562.9
244.251495361,5624.85
244.552993774,5639.45
244.854492188,5628.025
245.155975342,5646.975
245.457443237,5710.225
245.758880615,5708.4
246.060333252,5726.575
246.36177063,5730.85
246.66317749,5718.25
246.964569092,5733.85
247.265945435,5743.125
247.567337036,5773.125
247.86869812,5829.9
248.170059204,5814.725
248.471389771,5835.15
248.772705078,5894.875
249.074035645,5937.0
249.375335693,5972.3
249.676620483,6024.5
249.977890015,6091.2
250.279159546,6181.275
250.58039856,6262.175
250.881637573,6312.3
251.182876587,6383.675
251.484069824,6467.725
251.785263062,6564.075
252.086456299,6666.125
252.387619019,6713.475
252.688781738,6785.3
252.989929199,6884.575
253.291061401,7012.7
253.592178345,7113.825
253.893280029,7201.425
254.194366455,7241.375
254.49546814,7278.75
254.796524048,7345.9
255.097579956,7415.525
255.398620605,7462.325
255.699645996,7493.125
256.000640869,7520.1
256.30166626,7581.725
256.602661133,7610.15
256.903656006,7590.525
257.204589844,7606.475
257.505523682,7574.5
257.80645752,7617.65
258.107391357,7580.5
258.408294678,7576.525
258.709228516,7488.7
259.010070801,7455.15
259.310943604,7454.825
259.611846924,7358.2
259.912658691,7306.425
260.213500977,7281.675
260.514343262,7181.2
260.815124512,7093.325
261.115936279,7072.625
261.416717529,7040.125
261.717468262,6983.95
262.018218994,6923.275
262.318969727,6893.875
262.619689941,6939.975
262.920410156,6954.45
263.221130371,6988.125
263.521789551,6991.675
263.822479248,7033.1
264.123138428,7071.4
264.42376709,7077.325
264.72442627,7043.925
265.025054932,7050.025
265.325622559,7042.4
265.626251221,7035.05
265.926818848,6950.75
266.227386475,6906.0
266.527954102,6840.375
266.828460693,6824.8
267.12902832,6685.75
267.429534912,6644.15
267.730010986,6590.15
268.030517578,6513.975
268.330993652,6448.825
268.631439209,6410.6
268.931915283,6366.95
269.232299805,6294.875
269.532745361,6225.775
269.8331604,6177.45
270.133544922,6170.65
270.433929443,6127.9
270.734313965,6088.575
271.034637451,6083.6
271.334991455,6031.625
271.635314941,6059.125
271.935638428,6083.775
272.235931396,6076.725
272.536254883,6120.325
272.836486816,6170.2
273.136749268,6237.075
273.437011719,6290.25
273.737213135,6384.35
274.037445068,6487.475
274.337677002,6528.4
274.6378479,6606.325
274.938049316,6738.075
275.238220215,6813.4
275.538360596,6950.475
275.838500977,6989.9
276.138641357,7144.675
276.438751221,7164.9
276.738830566,7253.325
277.03894043,7302.775
277.338989258,7422.075
277.639038086,7507.05
277.939056396,7519.775
278.239105225,7549.8
278.539093018,7676.325
278.839141846,7670.35
279.139129639,7728.0
279.439086914,7828.425
279.739044189,7836.9
280.039001465,7903.575
280.338928223,7951.65
280.63885498,7971.25
280.938781738,8014.7
281.238647461,8042.875
281.538513184,8035.95
281.838409424,8071.8
282.138244629,8113.5
282.438079834,8106.975
282.737945557,8131.075
283.037719727,8133.775
283.337524414,8136.625
283.637298584,8147.05
283.937072754,8114.075
284.236816406,8155.875
284.536560059,8091.7
284.836303711,8141.375
285.136016846,8158.175
285.43572998,8136.125
285.735412598,8137.9
286.035064697,8130.1
286.334747314,8148.15
286.634368896,8149.475
286.933990479,8082.475
287.233642578,8031.1
287.533203125,8042.975
287.832824707,7922.475
288.132385254,7825.25
288.431945801,7689.6
288.731506348,7568.925
289.031036377,7374.125
289.330566406,7253.975
289.630065918,7244.075
289.92956543,7228.3
290.229034424,7301.725
290.528503418,7451.1
290.827941895,7606.05
291.127380371,7729.2
291.42678833,7838.25
291.726226807,7984.45
292.025604248,8023.075
292.324981689,8067.275
292.624359131,8035.625
292.923736572,8049.575
293.223052979,8052.225
293.522369385,8040.075
293.821685791,7988.25
294.12097168,7987.9
294.420257568,7967.35
294.719543457,7903.1
295.018768311,7895.075
295.318023682,7830.35
295.617248535,7763.325
295.916442871,7704.225
296.215667725,7648.55
296.514862061,7499.525
296.813995361,7274.25
297.11315918,7096.275
297.412322998,6971.5
297.711425781,6918.775
298.010559082,7085.8
298.309631348,7303.5
298.608734131,7445.075
298.907806396,7672.475
299.206848145,7825.825
299.505889893,7836.45
299.804901123,7960.1
300.103912354,8060.7
300.402954102,8117.275
300.701904297,8177.425
301.00088501,8213.325
301.299835205,8290.75
301.5987854,8312.375
301.897735596,8376.35
302.196624756,8458.925
302.495513916,8511.65
302.794403076,8541.3
303.093292236,8624.55
303.392120361,8665.325
303.690979004,8736.625
303.989837646,8779.475
304.288604736,8812.125
304.587402344,8805.375
304.886199951,8846.5
305.184967041,8921.6
305.483734131,8948.875
305.782501221,8962.825
306.081176758,8958.725
306.37991333,9007.425
306.678619385,9005.375
306.977294922,9003.375
307.275970459,9044.325
307.574645996,9054.675
307.873260498,9014.875
308.171875,9046.5
308.470489502,9056.625
308.769104004,8957.675
309.067687988,8946.225
309.366241455,8976.5
309.664794922,8916.675
309.963348389,8933.975
310.261871338,8929.375
310.560394287,8923.625
310.858856201,8959.9
311.157348633,8999.45
311.455810547,8975.925
311.754272461,9007.875
312.052703857,9071.95
312.351135254,9081.375
312.649536133,9075.675
312.947937012,9092.75
313.246307373,9074.2
313.544647217,9090.8
313.843017578,9053.95
314.141387939,9023.05
314.439697266,9049.0
314.738006592,8959.875
315.036315918,8899.85
315.334564209,8821.5
315.6328125,8777.675
315.931091309,8692.825
316.229309082,8574.85
316.527526855,8439.85
316.825744629,8419.725
317.123901367,8317.5
317.422088623,8261.125
317.720245361,8268.825
318.0184021,8270.6
318.316497803,8314.425
318.614654541,8348.25
318.912750244,8440.25
319.21081543,8433.25
319.50894165,8457.75
319.806945801,8457.175
320.104980469,8462.475
320.403045654,8443.85
320.701049805,8402.4
320.999023438,8401.85
321.297027588,8364.225
321.595001221,8327.6
321.892913818,8279.05
322.190887451,8228.9
322.488830566,8163.075
322.786712646,8138.3
323.084625244,8037.825
323.382507324,8036.2
323.680358887,7930.6
323.978210449,7853.125
324.276062012,7786.2
324.573852539,7742.4
324.871643066,7693.0
325.169464111,7624.775
325.467224121,7569.9
325.764984131,7511.725
326.062744141,7439.0
326.360473633,7332.825
326.658203125,7299.575
326.955871582,7192.75
327.253570557,7162.825
327.551239014,7105.875
327.848907471,7016.475
328.146514893,6971.2
328.444152832,6900.3
328.741790771,6853.225
329.039367676,6801.925
329.336914062,6715.5
329.634521484,6676.275
329.932067871,6601.975
330.229553223,6543.5
330.527160645,6474.6
330.824615479,6435.95
331.12210083,6362.85
331.419586182,6254.325
331.717041016,6211.575
332.014465332,6109.45
332.311920166,6076.825
332.609313965,6021.875
332.906707764,6016.225
333.204101562,5998.6
333.501495361,6020.4
333.798828125,6077.45
334.096160889,6094.35
334.39352417,6168.925
334.690795898,6216.525
334.988098145,6258.725
335.285400391,6295.0
335.582641602,6295.825
335.879882812,6349.5
336.177124023,6345.2
336.474334717,6431.75
336.77154541,6423.3
337.068725586,6424.375
337.365905762,6444.275
337.66305542,6462.75
337.960205078,6480.725
338.257324219,6503.925
338.554443359,6483.9
338.8515625,6524.45
339.148590088,6530.35
339.445648193,6542.875
339.742736816,6487.575
340.039764404,6484.175
340.336761475,6466.375
340.63381958,6407.0
340.930755615,6344.525
341.227722168,6272.075
341.524688721,6208.725
341.821624756,6158.375
342.118560791,6180.4
342.415496826,6267.575
342.712402344,6406.05
343.009246826,6529.175
343.306121826,6629.25
343.602966309,6691.825
343.899810791,6784.775
344.196624756,6859.65
344.493438721,6898.05
344.79019165,6954.85
345.086975098,7016.6
345.383758545,7038.225
345.680480957,7030.225
345.977203369,7015.925
346.273956299,7081.325
346.570617676,7062.925
346.86730957,7095.45
347.163970947,7053.775
347.460601807,7107.4
347.757232666,7124.4
348.053894043,7103.125
348.350463867,7028.9
348.647064209,6998.775
348.943634033,7014.95
349.24017334,6995.825
349.536712646,6955.875
349.833251953,6961.175
350.129760742,6953.425
350.426208496,6948.0
350.722747803,6906.45
351.019195557,6901.775
351.315612793,6846.925
351.612060547,6813.35
351.908508301,6761.575
352.204864502,6703.375
352.501281738,6652.175
352.797637939,6615.4
353.093963623,6531.15
353.390319824,6462.725
353.686645508,6365.35
353.982940674,6303.275
354.27923584,6261.05
354.575531006,6218.9
354.871765137,6183.65
355.167999268,6174.575
355.464233398,6181.275
355.760437012,6183.325
356.056640625,6200.65
356.352813721,6192.775
356.648956299,6194.65
356.945129395,6217.275
357.241271973,6204.175
357.537384033,6254.05
357.833496094,6172.825
358.129577637,6155.95
358.425628662,6139.2
358.721679688,6123.6
359.017730713,6098.925
359.313720703,6024.975
359.609710693,6013.275
359.905761719,5952.5
360.201721191,5924.1
360.497650146,5867.925
360.793609619,5838.225
361.089538574,5752.45
361.385437012,5676.075
361.681365967,5650.975
361.977233887,5598.925
362.273071289,5518.475
362.568908691,5416.525
362.864746094,5300.8
363.160552979,5187.825
363.456359863,5013.375
363.752166748,4865.8
364.047912598,4787.35
364.343658447,4741.1
364.639434814,4787.625
364.935119629,4821.85
365.230834961,4885.975
365.526550293,4902.025
365.822174072,4929.025
366.117858887,4964.775
366.413482666,4958.325
366.709075928,5007.475
367.004730225,4910.1
367.300292969,4930.125
367.595855713,4955.55
367.891448975,4847.0
368.186981201,4761.6
368.482513428,4707.325
368.778015137,4705.6
369.073547363,4650.75
369.36895752,4675.075
369.664428711,4558.0
369.95993042,4455.6
370.255310059,4407.4
370.550720215,4372.475
370.846160889,4349.225
371.14151001,4292.425
371.436859131,4285.15
371.73223877,4274.425
372.027557373,4233.25
372.322875977,4182.425
372.618164062,4143.0
372.913482666,4115.3
373.208709717,4086.1
373.503967285,4023.825
373.799194336,3999.2
374.094421387,3980.825
374.389648438,3964.9
374.684844971,3957.225
374.979980469,3991.875
375.275146484,4007.75
375.570281982,4026.4
375.865386963,4020.45
376.160522461,3988.95
376.455596924,4003.95
376.750640869,4088.825
377.045715332,4094.575
377.340759277,4136.575
377.635772705,4190.725
377.93081665,4214.025
378.225769043,4302.85
378.520751953,4342.125
378.815734863,4309.775
379.110656738,4468.375
379.405548096,4642.6
379.700500488,4493.725
379.995391846,4275.775
380.290252686,4315.95
380.585083008,4441.325
380.879974365,4469.425
381.17477417,4380.425
381.469543457,4328.2
381.764404297,4316.7
382.059143066,4330.725
382.353912354,4411.525
382.648651123,4506.85
382.943389893,4492.0
383.238067627,4323.425
383.532775879,4323.175
383.827484131,4258.675
384.12210083,4272.15
384.416778564,4221.2
384.711425781,4111.375
385.006011963,4134.0
385.300628662,4120.75
385.595184326,4212.525
385.88973999,4299.575
386.184295654,4412.5
386.478820801,4481.85
386.77331543,4565.35
387.067840576,4690.6
387.362335205,4800.2
387.656768799,4858.525
387.951202393,4923.725
388.245635986,4980.025
388.540039062,5033.5
388.834472656,5119.925
389.128875732,5005.6
389.423187256,4760.575
389.717559814,4729.0
390.011871338,4828.775
390.306182861,4859.575
390.600463867,4871.175
390.894775391,4924.025
391.189025879,4975.25
391.48324585,4962.95
391.777526855,5011.75
392.071685791,5235.65
392.365875244,5315.775
392.660064697,5402.1
392.95425415,5729.225
393.248382568,5706.825
393.542510986,5234.7
393.836608887,5056.15
394.130706787,5068.075
394.424804688,4997.125
394.71887207,5116.925
395.012878418,5097.175
395.306915283,4988.0
395.600921631,4924.825
395.894927979,4900.425
396.188903809,4948.675
396.482879639,4947.925
396.776794434,5145.25
397.070739746,5124.275
397.364654541,5142.05
397.658538818,5530.225
397.952423096,5569.275
398.246307373,5524.825
398.540100098,6032.55
398.833953857,5920.575
399.127746582,5446.45
399.421508789,5449.525
399.715301514,5382.9
400.009063721,5308.2
400.30279541,5138.725
400.596496582,5045.25
400.890258789,5209.875
401.183929443,5294.975
401.47756958,5194.35
401.771240234,4955.775
402.064880371,4971.0
402.35848999,5020.05
402.652130127,4920.625
402.945678711,4989.55
403.239257812,4931.475
403.532775879,4881.8
403.82635498,4930.475
404.119842529,4830.675
404.413360596,4826.05
404.706848145,4890.675
405.000274658,4823.225
405.293762207,4885.9
405.587188721,4945.175
405.880584717,4772.175
406.17401123,4604.825
406.467407227,4394.8
406.760742188,4399.7
407.054107666,4427.35
407.347442627,4358.175
407.640716553,4337.05
407.934051514,4394.85
408.227325439,4475.75
408.520568848,4690.575
408.813842773,4785.75
409.107086182,4573.65
409.400238037,4532.35
409.693450928,4460.825
409.986633301,4579.075
410.279754639,4501.575
410.572875977,4192.2
410.86605835,4124.8
411.159118652,4158.65
411.452209473,4144.25
411.745330811,4003.95
412.038360596,3913.8
412.331390381,3954.2
412.624420166,4014.025
412.917388916,3905.175
413.210388184,3733.425
413.503387451,3716.875
413.796295166,3603.675
414.089233398,3417.3
414.382141113,3332.65
414.675048828,3334.225
414.967926025,3352.325
415.260803223,3297.4
415.55368042,3321.65
415.846466064,3298.725
416.139282227,3366.775
416.432098389,3484.875
416.724853516,3487.975
417.017608643,3413.025
417.31036377,3438.325
417.603088379,3561.375
417.895782471,3522.95
418.188476562,3510.25
418.481140137,3569.3
418.773803711,3636.05
419.066436768,3612.075
419.359039307,3667.425
419.651641846,3666.325
419.944244385,3684.15
420.236816406,3636.75
420.529327393,3838.375
420.821899414,3923.825
421.114379883,3858.2
421.406860352,4130.075
421.699371338,4357.45
421.991821289,4286.225
422.284240723,4082.9
422.576721191,3944.525
422.869110107,3823.575
423.161468506,3781.15
423.453857422,3813.1
423.74621582,3687.2
424.038543701,3546.45
424.330871582,3523.575
424.623168945,3455.875
424.915435791,3587.825
425.207702637,3551.45
425.499969482,3497.775
425.792205811,3423.375
426.084411621,3172.225
426.376617432,3266.525
426.668762207,3347.525
426.9609375,3214.7
427.253082275,3335.125
427.545196533,3763.0
427.837310791,3471.55
428.129425049,3169.225
428.421447754,3390.575
428.713531494,3388.775
429.005554199,3387.775
429.297576904,3386.0
429.589599609,3825.25
429.881561279,4130.975
430.173522949,3912.125
430.465484619,3880.35
430.757415771,3951.525
431.049316406,3714.425
431.341186523,3498.825
431.633117676,3368.975
431.924957275,3081.45
432.21673584,2961.5
432.508636475,3120.325
432.800415039,3140.0
433.092163086,3025.7
433.383972168,2992.125
433.675689697,3715.9
433.967437744,4199.525
434.259155273,3237.1
434.550872803,2940.0
434.842498779,2983.725
435.134185791,3121.275
435.425842285,3135.0
435.717437744,3041.025
436.009063721,2858.675
436.30065918,3007.25
436.592224121,3361.175
436.883758545,3157.0
437.175323486,2880.5
437.466827393,2856.0
437.758331299,2867.875
438.049804688,2896.95
438.341247559,2975.925
438.63269043,3030.775
438.924163818,3016.55
439.215515137,2988.65
439.50692749,2881.8
439.798309326,2886.6
440.089660645,2896.2
440.380981445,2809.275
440.672332764,2805.525
440.963623047,3065.15
441.254882812,3549.5
441.546173096,3730.725
441.837402344,3456.85
442.128631592,3283.95
442.41986084,3255.05
442.711029053,3121.9
443.002197266,3201.4
443.293365479,3387.875
443.584503174,3514.6
443.875610352,3504.675
444.166717529,3235.575
444.457794189,3275.85
444.748840332,3270.675
445.039916992,3207.55
445.330932617,3297.0
445.621948242,3151.675
445.912963867,2958.325
446.203918457,3190.9
446.494812012,3407.9
446.785827637,3210.075
447.076721191,3036.525
447.367584229,3012.8
447.658447266,2978.225
447.949371338,3043.5
448.24017334,2908.75
448.530975342,2855.65
448.821838379,3012.475
449.112579346,3096.75
449.40335083,3027.95
449.694152832,3056.725
449.984863281,3069.05
450.27557373,2989.175
450.56628418,3049.55
450.856933594,3067.55
451.147583008,2908.15
451.438262939,2800.625
451.728881836,3008.2
452.019470215,3120.8
452.310089111,2889.625
452.600646973,2923.65
452.891174316,2986.975
453.181732178,2802.2
453.472229004,2668.325
453.762695312,2771.6
454.053222656,2820.2
454.343658447,2679.825
454.634063721,2620.75
454.924530029,2803.025
455.214935303,2920.425
455.505279541,3008.05
455.795715332,2868.2
456.086029053,2661.55
456.376312256,2644.8
456.666687012,2663.025
456.956939697,2777.725
457.247192383,2772.9
457.537445068,2858.825
457.827728271,3040.575
458.117919922,2980.3
458.408081055,2895.15
458.698303223,3083.0
458.988433838,3015.7
459.278564453,2828.775
459.568725586,3099.075
459.858825684,3237.475
460.148864746,2905.225
460.438995361,2890.6
460.729034424,2924.95
461.019042969,2925.45
461.309082031,3139.575
461.599060059,3023.1
461.889007568,2562.55
462.179016113,2372.725
462.468933105,2624.825
462.75881958,2713.95
463.048736572,2467.725
463.338592529,2728.675
463.628448486,3088.25
463.918365479,2800.55
464.2081604,2972.0
464.497924805,2933.3
464.787780762,3033.775
465.077514648,3365.475
465.367218018,2966.0
465.657012939,3190.875
465.946685791,3604.725
466.236358643,3196.875
466.526092529,2665.25
466.815734863,2662.775
467.105316162,2587.925
467.394927979,2616.325
467.684570312,2472.925
467.974121094,2547.25
468.263671875,2659.4
468.553222656,2444.55
468.842773438,2344.625
469.132232666,2238.35
469.42175293,2262.4
469.711212158,2226.8
470.000640869,2096.1
470.290100098,2159.325
470.579498291,2201.125
470.868835449,2202.25
471.158294678,2168.675
471.447601318,2157.625
471.736907959,2231.45
472.026275635,2274.35
472.315551758,2269.55
472.604797363,2259.025
472.894104004,2378.975
473.183319092,2511.7
473.47253418,2487.05
473.761779785,2481.125
474.05090332,2421.35
474.340087891,2369.325
474.629241943,2292.675
474.918365479,2473.675
475.207427979,2745.625
475.496551514,2762.85
475.785614014,2493.75
476.074645996,2303.325
476.363708496,2404.05
476.652679443,2537.325
476.941650391,2356.225
477.230682373,2200.75
477.519622803,2205.45
477.808502197,2347.15
478.097412109,2629.1
478.386352539,2568.675
478.675201416,2298.575
478.964050293,2201.325
479.25289917,2394.375
479.541717529,2446.35
479.830474854,2291.925
480.11932373,2634.15
480.408050537,2819.15
480.696777344,2435.825
480.985534668,2299.15
481.274200439,2393.975
481.562866211,2646.1
481.851593018,2655.175
482.140197754,2606.125
482.428833008,2447.05
482.717468262,2234.5
483.006011963,2271.625
483.294586182,2400.05
483.5831604,2429.15
483.871673584,2303.525
484.16015625,2440.825
484.448699951,2675.4
484.7371521,2727.525
485.02557373,2715.275
485.314025879,2455.275
485.602416992,3793.65
485.890777588,13503.075
486.179199219,12095.25
486.467559814,3230.975
486.755859375,2347.95
487.044219971,2749.85
487.332519531,2928.85
487.620758057,2502.375
487.908966064,2237.575
488.197265625,2052.625
488.485473633,1944.3
488.773651123,2064.65
489.061859131,2074.375
489.350006104,2003.7
489.638122559,1935.25
489.926300049,1970.6
490.214355469,1909.65
490.502441406,1864.825
490.790527344,1794.05
491.078552246,1990.25
491.366546631,1997.5
491.654602051,1753.175
491.942565918,1845.225
492.230499268,1876.5
492.518493652,1841.125
492.806396484,1886.425
493.094268799,1775.975
493.382202148,1831.6
493.670074463,1956.675
493.957885742,1797.175
494.245727539,1788.225
494.533508301,1948.675
494.821289062,1839.825
495.109100342,1689.725
495.396850586,1626.65
495.684539795,1588.3
495.972290039,1807.55
496.25994873,2146.175
496.547607422,2163.55
496.835296631,1977.975
497.122894287,1653.55
497.410522461,1569.55
497.6980896,1561.225
497.985687256,1535.575
498.273223877,1638.975
498.560760498,1699.85
498.848266602,1727.65
499.135772705,1698.85
499.423217773,1743.675
499.710693359,1863.825
499.998138428,1800.05
500.285522461,1633.2
500.572937012,1549.975
500.860290527,1601.9
501.147644043,1703.05
501.434997559,1939.95
501.722290039,1797.775
502.00958252,1554.375
502.296875,1832.675
502.584106445,1820.125
502.871337891,1631.5
503.158599854,1719.725
503.445770264,1790.025
503.732910156,1756.9
504.020141602,1578.65
504.307220459,1560.625
504.594329834,1596.675
504.881469727,1527.925
505.168518066,1608.075
505.455535889,1669.075
505.742614746,1550.625
506.029632568,1477.075
506.316589355,1672.45
506.603637695,1760.425
506.890563965,1565.1
507.177459717,1396.75
507.464385986,1309.2
507.751312256,1529.325
508.038146973,1614.875
508.325012207,1471.775
508.611877441,1540.225
508.898681641,1536.15
509.185424805,1385.175
509.472259521,1340.8
509.759002686,1431.2
510.045715332,1458.1
510.332458496,1415.725
510.619140625,1470.05
510.905761719,1367.775
511.192504883,1363.125
511.479095459,1409.6
511.765686035,1359.85
512.052307129,1271.95
512.338928223,1236.3
512.625427246,1272.375
512.91204834,1347.8
513.198486328,1322.225
513.484985352,1287.15
513.77142334,1214.275
514.057922363,1260.275
514.344299316,1257.825
514.63079834,1207.025
514.917175293,1199.65
515.203552246,1098.025
515.489868164,1075.35
515.776245117,1199.575
516.0625,1245.95
516.348815918,1157.225
516.635070801,1196.375
516.921325684,1239.75
517.207580566,1172.325
517.493774414,1084.95
517.779968262,1101.25
518.066101074,1140.825
518.352294922,1082.425
518.638366699,1085.7
518.924499512,1178.475
519.210632324,1256.85
519.496643066,1207.925
519.782714844,1109.425
520.068786621,1072.225
520.354736328,1035.9
520.640686035,994.975
520.926757812,1038.75
521.212646484,1115.925
521.498535156,1121.25
521.784484863,1073.125
522.0703125,1005.925
522.356262207,1018.825
522.642089844,1094.025
522.927856445,1087.1
523.213684082,1082.6
523.499511719,1077.4
523.78527832,1109.575
524.070983887,1171.9
524.356750488,1145.95
524.64239502,1103.775
524.928039551,1091.3
525.213806152,1119.0
525.499389648,1106.425
525.784973145,1122.675
526.070617676,1177.6
526.356140137,1146.775
526.641723633,1149.275
526.927307129,1206.4
527.212768555,1217.475
527.498291016,1184.125
527.783752441,1190.575
528.069213867,1174.675
528.354675293,1196.9
528.640014648,1353.525
528.925476074,1430.35
529.21081543,1348.075
529.496154785,1322.675
529.781555176,1291.325
530.066833496,1313.275
530.352050781,1325.8
530.637390137,1316.75
530.922607422,1316.3
531.207824707,1307.5
531.493041992,1291.0
531.778198242,1371.95
532.063354492,1349.875
532.348571777,1290.1
532.633666992,1317.35
532.918762207,1387.85
533.203857422,1466.95
533.488891602,1493.95
533.773925781,1452.85
534.059020996,1412.275
534.343933105,1440.9
534.628967285,1422.125
534.91394043,1432.3
535.198852539,1450.375
535.483703613,1424.775
535.768676758,1358.95
536.053527832,1379.775
536.338317871,1334.25
536.62322998,1256.825
536.90802002,1236.225
537.192810059,1268.925
537.477539062,1344.55
537.762329102,1385.25
538.047058105,1429.5
538.331726074,1458.825
538.616455078,1444.35
538.901123047,1427.3
539.18572998,1477.975
539.470397949,1468.45
539.755004883,1450.7
540.039550781,1421.2
540.32409668,1389.225
540.608703613,1419.95
540.893188477,1507.825
541.17767334,1536.125
541.462158203,1528.675
541.746643066,1465.65
542.031066895,1514.7
542.315429688,1566.95
542.59979248,1560.025
542.884216309,1554.075
543.168579102,1545.85
543.452941895,1550.625
543.737243652,1608.325
544.021484375,1645.375
544.305725098,1644.125
544.590026855,1617.925
544.874267578,1624.7
545.158447266,1690.25
545.442626953,1604.8
545.726806641,1500.65
546.010925293,1537.55
546.29510498,1567.475
546.579162598,1561.975
546.863220215,1608.45
547.147277832,1667.275
547.431335449,1744.5
547.715332031,1812.925
547.999328613,1921.475
548.283325195,1928.375
548.567260742,1783.175
548.851135254,1750.875
549.135070801,1729.975
549.419006348,1633.45
549.702819824,1738.3
549.986755371,1811.6
550.270507812,1756.425
550.554321289,1810.35
550.83807373,1818.75
551.121826172,1780.475
551.405517578,1797.425
551.689331055,1916.275
551.973022461,2144.5
552.256652832,2202.8
552.540344238,2101.775
552.823974609,2081.675
553.107543945,2067.55
553.391174316,2130.9
553.674743652,2177.025
553.958251953,2182.775
554.241821289,2199.75
554.525268555,2142.925
554.808776855,2123.85
555.092285156,2320.75
555.375671387,2412.55
555.659057617,2401.325
555.942504883,2431.475
556.225891113,2470.125
556.509216309,2426.525
556.792541504,2327.75
557.075866699,2416.35
557.359130859,2463.7
557.64239502,2439.925
557.92565918,2531.475
558.208862305,2512.525
558.49206543,2445.175
558.77532959,2461.3
559.058410645,2506.725
559.341552734,2496.95
559.624694824,2563.475
559.907775879,2617.25
560.190856934,2753.025
560.473937988,2735.4
560.756896973,2775.65
561.039978027,2803.975
561.322937012,2772.2
561.605895996,2752.475
561.88885498,2733.075
562.171813965,2719.075
562.454650879,2714.525
562.737548828,2740.15
563.020446777,2815.825
563.303283691,2853.825
563.58605957,2878.275
563.868896484,2888.675
564.151672363,2934.575
564.434387207,2976.025
564.717163086,2934.95
564.99987793,2980.625
565.282531738,3041.1
565.565185547,2975.425
565.847839355,2996.575
566.130432129,3114.875
566.413085938,3085.525
566.695678711,3108.525
566.978149414,3214.7
567.260681152,3374.9
567.543273926,3444.65
567.825744629,3338.425
568.108154297,3364.6
568.390686035,3508.975
568.673095703,3622.4
568.955505371,3676.625
569.237854004,3706.0
569.520202637,3975.5
569.802490234,4200.575
570.084838867,4158.6
570.367126465,3989.0
570.649414062,4014.2
570.93170166,4385.125
571.213928223,4457.45
571.496154785,4218.075
571.778381348,4428.575
572.06048584,4692.45
572.342590332,4215.175
572.624755859,3865.55
572.906860352,3945.1
573.188903809,4630.775
573.470947266,4873.725
573.752990723,4636.775
574.03503418,4727.675
574.317016602,5132.85
574.598937988,4929.375
574.88092041,4769.225
575.162841797,4975.375
575.444763184,4578.125
575.726623535,4342.1
576.008483887,4363.9
576.290344238,4791.0
576.572143555,4999.3
576.853881836,5037.775
577.135681152,4950.125
577.417419434,5011.6
577.699157715,5882.125
577.980895996,6063.1
578.262573242,5379.65
578.544128418,4898.4
578.825866699,4839.725
579.107421875,4531.1
579.388977051,4714.35
579.670593262,5118.825
579.952148438,4922.725
580.233642578,5053.95
580.515197754,5151.375
580.796691895,4845.15
581.078125,5033.3
581.359619141,6577.675
581.640991211,6654.05
581.922363281,5737.075
582.203796387,5784.025
582.485107422,5420.175
582.766418457,5029.05
583.047790527,4865.125
583.329040527,4760.175
583.610290527,4633.2
583.891540527,4737.1
584.172790527,5037.325
584.453918457,5052.5
584.735107422,5127.175
585.016235352,5580.875
585.297363281,5514.2
585.578552246,5328.25
585.859619141,5282.9
586.140625,5034.875
586.421630859,4899.3
586.702697754,4941.1
586.983642578,5172.725
587.264648438,5341.25
587.545654297,5289.8
587.826477051,5224.85
588.107421875,5030.525
588.388305664,5072.55
588.669189453,5170.725
588.950012207,5018.275
589.230834961,4902.8
589.511657715,5016.55
589.792358398,5107.85
590.073120117,5098.625
590.353881836,5071.05
590.63458252,5091.2
590.915283203,5067.475
591.195922852,5050.25
591.4765625,5102.8
591.757202148,5139.475
592.037780762,5114.975
592.31829834,5113.225
592.598937988,5341.4
592.879394531,5498.25
593.159912109,5419.0
593.440429688,5343.75
593.720825195,5325.2
594.001281738,5302.225
594.281677246,5217.625
594.562072754,5233.75
594.842407227,5332.325
595.122802734,5377.5
595.403137207,5352.5
595.683410645,5323.275
595.963623047,5292.425
596.243896484,5279.575
596.524169922,5284.5
596.804382324,5279.15
597.084533691,5313.35
597.364746094,5346.15
597.644836426,5383.65
597.924987793,5337.55
598.205078125,5321.425
598.485107422,5352.525
598.765197754,5474.475
599.045227051,5503.875
599.325195312,5437.075
599.605224609,5370.5
599.885192871,5412.15
600.165100098,5454.225
600.445007324,5407.425
600.724914551,5398.45
601.004760742,5410.05
601.284667969,5443.525
601.56451416,5397.75
601.844238281,5422.7
602.124084473,5415.525
602.403808594,5393.675
602.683532715,5453.775
602.963256836,5445.325
603.242919922,5481.175
603.522583008,5515.8
603.802246094,5468.05
604.081848145,5444.4
604.36138916,5429.375
604.641052246,5465.325
604.920532227,5442.825
605.200073242,5476.8
605.479614258,5486.2
605.759094238,5501.775
606.038574219,5521.325
606.317932129,5460.45
606.597412109,5453.675
606.87677002,5461.5
607.15612793,5510.775
607.435546875,5498.95
607.714782715,5500.65
607.99407959,5445.9
608.273376465,5443.2
608.552612305,5496.375
608.831848145,5481.875
609.111083984,5472.6
609.390258789,5459.75
609.669433594,5471.375
609.948608398,5521.025
610.227722168,5507.675
610.506713867,5446.725
610.785888672,5462.275
611.064880371,5448.525
611.34387207,5474.225
611.622924805,5471.175
611.901916504,5487.6
612.180847168,5409.175
612.459777832,5421.5
612.738647461,5404.75
613.01751709,5390.025
613.296447754,5323.525
613.575317383,5307.925
613.854064941,5247.35
614.132873535,5168.975
614.411621094,5117.05
614.690368652,5096.175
614.969177246,5039.975
615.247802734,4962.95
615.526489258,4924.775
615.805175781,4825.35
616.08380127,4712.725
616.362365723,4637.525
616.640991211,4596.9
616.919555664,4550.6
617.198059082,4651.45
617.4765625,4916.95
617.755126953,5062.5
618.033569336,5097.475
618.311950684,5070.15
618.590454102,5077.775
618.868774414,5048.0
619.147155762,5058.15
619.425598145,5056.725
619.703857422,5043.725
619.982177734,5053.575
620.260498047,5056.05
620.538757324,5038.675
620.816955566,4994.575
621.095214844,4962.7
621.373413086,4974.05
621.651550293,5033.7
621.929748535,5075.925
622.207824707,5041.675
622.485900879,5066.45
622.764038086,5055.1
623.042053223,5080.625
623.320007324,5129.525
623.598083496,5118.6
623.876037598,5094.65
624.153991699,5108.275
624.432006836,5117.0
624.709838867,5155.275
624.987731934,5121.425
625.265563965,5118.25
625.543395996,5157.15
625.821228027,5177.725
626.098999023,5178.125
626.376831055,5228.275
626.654541016,5233.25
626.932250977,5289.55
627.209960938,5321.55
627.487670898,5330.425
627.765319824,5345.875
628.04296875,5354.975
628.320495605,5362.225
628.598083496,5356.5
628.875671387,5404.675
629.153259277,5440.75
629.430725098,5484.075
629.708251953,5468.55
629.985656738,5508.675
630.263122559,5538.3
630.540588379,5546.15
630.817932129,5561.725
631.095275879,5608.8
631.372680664,5625.85
631.649963379,5692.675
631.927246094,5726.3
632.204589844,5765.525
632.481811523,5815.275
632.759033203,5895.675
633.036254883,5912.025
633.313415527,5977.975
633.590576172,6047.375
633.867736816,6154.575
634.144836426,6214.075
634.421875,6258.4
634.698913574,6336.275
634.976013184,6354.8
635.252990723,6421.775
635.529968262,6461.725
635.807006836,6550.925
636.08392334,6516.275
636.360839844,6434.075
636.637756348,6328.85
636.914611816,6308.85
637.191467285,6281.45
637.468261719,6342.35
637.745056152,6324.95
638.021789551,6327.25
638.298583984,6355.575
638.575317383,6394.9
638.851989746,6391.375
639.12878418,6408.8
639.405395508,6390.9
639.682006836,6424.55
639.958618164,6429.7
640.235229492,6403.9
640.511779785,6431.575
640.788330078,6414.1
641.064880371,6442.775
641.341308594,6416.225
641.617797852,6451.55
641.894226074,6420.075
642.170654297,6449.4
642.44708252,6453.9
642.723388672,6430.525
642.999755859,6399.575
643.276123047,6408.475
643.552429199,6418.95
643.828674316,6425.6
644.104919434,6408.0
644.381164551,6400.175
644.657348633,6406.1
644.933532715,6380.075
645.209716797,6359.825
645.485839844,6378.8
645.761901855,6391.225
646.038024902,6373.0
646.314086914,6386.2
646.590087891,6390.575
646.866149902,6432.05
647.142150879,6358.925
647.41809082,6349.5
647.694030762,6336.55
647.969970703,6338.85
648.245788574,6364.475
648.521728516,6374.8
648.797546387,6343.15
649.073303223,6386.975
649.349182129,6353.125
649.624938965,6338.625
649.900634766,6347.225
650.176391602,6331.475
650.452087402,6315.225
650.727783203,6325.85
651.003479004,6331.775
651.279052734,6338.8
651.554626465,6308.35
651.83026123,6325.95
652.105773926,6351.575
652.381286621,6277.4
652.656860352,6304.35
652.932312012,6333.25
653.207763672,6335.125
653.483215332,6362.975
653.758605957,6352.85
654.033935547,6327.475
654.309326172,6348.825
654.584716797,6365.0
654.859985352,6353.35
655.135253906,6381.1
655.410583496,6376.825
655.685791016,7354.425
655.9609375,11485.85
656.236206055,11260.35
656.511291504,7422.95
656.786437988,6522.775
657.061645508,6437.05
657.336669922,6411.475
657.611694336,6459.2
657.886779785,6480.325
658.161804199,6484.575
658.436828613,6460.9
658.711791992,6483.05
658.986755371,6481.675
659.261657715,6502.575
659.536621094,6531.725
659.811401367,6533.15
660.086303711,6521.35
660.36114502,6537.8
660.635864258,6518.6
660.910644531,6576.575
661.185424805,6562.675
661.460205078,6599.725
661.734863281,6572.925
662.009521484,6566.95
662.284179688,6599.775
662.558776855,6626.925
662.833435059,6653.075
663.108032227,6648.35
663.382568359,6636.275
663.657043457,6686.125
663.93157959,6717.575
664.206054688,6677.65
664.48046875,6726.35
664.755004883,6755.175
665.02935791,6769.45
665.303710938,6786.525
665.578125,6803.575
665.852416992,6791.325
666.126708984,6806.225
666.401062012,6814.675
666.675292969,6872.75
666.949462891,6864.525
667.223754883,6866.425
667.497924805,6881.425
667.772094727,6902.9
668.046264648,6903.575
668.3203125,6947.4
668.594421387,6965.25
668.868469238,6984.175
669.14251709,6973.575
669.416503906,7016.05
669.690551758,7007.4
669.964477539,7042.925
670.23840332,7042.325
670.512329102,7022.075
670.786254883,7012.8
671.060058594,7084.9
671.333984375,7087.375
671.607788086,7110.4
671.881530762,7110.275
672.155334473,7136.8
672.429077148,7153.6
672.702758789,7131.225
672.97644043,7145.65
673.25012207,7155.85
673.523742676,7136.675
673.797302246,7138.925
674.070922852,7224.75
674.344482422,7212.275
674.618041992,7220.1
674.891601562,7226.05
675.165100098,7253.925
675.438476562,7230.2
675.711975098,7256.825
675.985412598,7231.45
676.258789062,7243.175
676.532165527,7261.575
676.805480957,7278.375
677.078796387,7296.725
677.352111816,7311.55
677.625366211,7301.4
677.898620605,7276.175
678.171875,7358.375
678.445007324,7350.8
678.718200684,7363.25
678.991394043,7355.35
679.264404297,7354.7
679.537536621,7386.7
679.81060791,7407.775
680.083679199,7419.75
680.356689453,7416.4
680.629699707,7425.725
680.902648926,7382.15
681.175598145,7451.6
681.448547363,7477.7
681.721435547,7409.225
681.99420166,7430.875
682.267150879,7429.575
682.539916992,7500.0
682.812744141,7453.725
683.085510254,7453.7
683.358215332,7485.275
683.63092041,7479.125
683.903625488,7499.3
684.176330566,7479.475
684.448913574,7464.05
684.721557617,7471.475
684.99420166,7506.925
685.266662598,7512.45
685.539245605,7525.15
685.811767578,7536.975
686.084289551,7566.7
686.356689453,7578.8
686.629150391,7615.75
686.901550293,7635.7
687.17401123,7634.8
687.446350098,7663.375
687.718688965,7655.475
687.990966797,7694.775
688.263305664,7709.175
688.535522461,7702.275
688.807739258,7687.7
689.079956055,7752.425
689.352172852,7779.225
689.624328613,7744.2
689.896484375,7787.55
690.168518066,7757.65
690.440612793,7820.075
690.71270752,7816.225
690.984741211,7819.25
691.256713867,7848.55
691.528747559,7830.975
691.800720215,7829.45
692.072631836,7859.65
692.344543457,7886.4
692.616394043,7899.675
692.888244629,7905.7
693.160095215,7966.2
693.431945801,7980.675
693.703674316,7934.775
693.975463867,7924.975
694.247131348,7979.9
694.518859863,8006.6
694.790588379,8018.575
695.062255859,8014.15
695.33380127,7984.4
695.60546875,7987.15
695.87701416,7998.525
696.148498535,8000.325
696.42010498,8055.975
696.691589355,8049.875
696.96307373,8081.85
697.234558105,8140.075
697.50592041,8095.25
697.777282715,8116.9
698.048706055,8131.85
698.320068359,8164.975
698.591308594,8140.775
698.862670898,8118.6
699.133972168,8148.8
699.405151367,8138.1
699.676391602,8185.725
699.947570801,8165.225
700.21875,8210.625
700.489868164,8200.025
700.761047363,8221.45
701.032104492,8248.6
701.303100586,8179.7
701.57421875,8250.575
701.845214844,8234.125
702.116149902,8271.575
702.387207031,8272.375
702.65814209,8269.1
702.928955078,8315.625
703.199951172,8275.2
703.47076416,8228.975
703.741577148,8238.05
704.012451172,8313.325
704.28314209,8293.575
704.553955078,8323.375
704.824707031,8361.0
705.095397949,8364.325
705.366027832,8364.025
705.63671875,8366.325
705.907348633,8335.875
706.17791748,8336.875
706.448486328,8356.45
706.719055176,8393.275
706.989562988,8382.675
707.260131836,8405.225
707.530517578,8436.625
707.800964355,8415.025
708.071411133,8371.575
708.341796875,8386.25
708.612182617,8360.575
708.882446289,8340.1
709.152893066,8359.775
709.423156738,8373.725
709.693359375,8354.425
709.963623047,8397.975
710.233825684,8410.8
710.503967285,8370.475
710.774169922,8395.475
711.044311523,8380.35
711.31439209,8377.6
711.584533691,8366.175
711.854553223,8387.35
712.124572754,8382.0
712.39465332,8359.675
712.664611816,8410.4
712.934509277,8434.95
713.204467773,8395.925
713.474365234,8421.65
713.74420166,8427.4
714.014099121,8439.05
714.283874512,8422.125
714.553710938,8422.8
714.823486328,8426.625
715.093200684,8418.725
715.362915039,8458.8
715.632629395,8415.625
715.902282715,8415.2
716.171875,8392.875
716.441589355,8414.55
716.711181641,8370.0
716.980712891,8394.1
717.250244141,8395.625
717.519775391,8389.9
717.78918457,8407.25
718.058654785,8442.6
718.328125,8468.2
718.597473145,8423.9
718.866882324,8411.6
719.136230469,8416.95
719.405578613,8444.85
719.674865723,8448.85
719.944152832,8438.875
720.213439941,8402.275
720.48260498,8403.15
720.75177002,8432.475
721.020996094,8426.75
721.290100098,8423.3
721.559204102,8393.75
721.828308105,8426.275
722.097351074,8418.125
722.366455078,8394.525
722.635437012,8386.3
722.904418945,8355.775
723.173400879,8351.925
723.442321777,8370.45
723.711181641,8344.0
723.980102539,8381.325
724.248962402,8377.9
724.51776123,8366.1
724.786560059,8369.2
725.055358887,8398.15
725.324035645,8353.7
725.592834473,8343.25
725.86151123,8306.325
726.130187988,8323.225
726.398803711,8314.8
726.667419434,8309.05
726.935974121,8292.975
727.204528809,8235.5
727.473083496,8263.775
727.741638184,8219.025
728.010070801,8212.825
728.278564453,8211.675
728.546936035,8239.375
728.815368652,8112.75
729.08380127,8079.45
729.352111816,8052.45
729.620361328,7984.025
729.88873291,8026.95
730.156982422,8063.05
730.425231934,8051.65
730.693481445,8027.725
730.961669922,8116.6
731.229797363,8134.55
731.49798584,8125.95
731.766113281,8199.125
732.034118652,8253.125
732.302246094,8281.75
732.570251465,8323.875
732.838256836,8343.75
733.106262207,8415.9
733.374145508,8417.725
733.642089844,8468.15
733.909973145,8492.675
734.177856445,8567.25
734.445678711,8656.15
734.713562012,8712.075
734.981323242,8726.325
735.249084473,8768.175
735.516845703,8899.625
735.784545898,8975.1
736.052185059,8989.25
736.319885254,9101.575
736.587524414,9137.025
736.855102539,9165.05
737.122619629,9281.15
737.390197754,9317.925
737.657714844,9410.975
737.925170898,9448.825
738.192749023,9562.75
738.460144043,9600.35
738.727539062,9649.675
738.994995117,9734.45
739.262329102,9808.3
739.529663086,9901.2
739.79699707,9878.225
740.06427002,9969.975
740.331481934,10034.3
740.598754883,10077.4
740.865905762,10077.275
741.133056641,10235.825
741.40032959,10233.25
741.667358398,10305.075
741.934448242,10327.025
742.201599121,10346.95
742.468566895,10455.525
742.735534668,10513.55
743.002563477,10530.675
743.26953125,10508.5
743.536437988,10550.375
743.803405762,10671.475
744.0703125,10591.225
744.337097168,10691.375
744.604003906,10607.5
744.870727539,10687.75
745.137512207,10700.75
745.40423584,10730.775
745.670959473,10679.925
745.93762207,10694.175
746.204284668,10715.2
746.470947266,10714.575
746.737548828,10714.9
747.004089355,10745.025
747.270751953,10762.05
747.53717041,10768.85
747.803710938,10703.45
748.070251465,10674.35
748.336608887,10704.15
748.603027344,10665.725
748.869445801,10649.825
749.135803223,10679.275
749.402099609,10662.375
749.668457031,10687.8
749.934753418,10584.925
750.20098877,10611.45
750.467224121,10648.875
750.733459473,10571.425
750.999572754,10574.475
751.26574707,10475.675
751.531860352,10529.175
751.797912598,10481.275
752.064025879,10435.525
752.330078125,10424.6
752.596069336,10381.225
752.862060547,10344.675
753.127990723,10371.275
753.393920898,10298.3
753.659912109,10282.275
753.925720215,10293.25
754.19152832,10235.9
754.457397461,10195.575
754.723144531,10154.625
754.988952637,10130.625
755.254699707,10138.4
755.520385742,10159.275
755.786071777,10137.05
756.051696777,10079.825
756.317382812,10044.325
756.582946777,10016.2
756.848510742,10016.475
757.114074707,9982.45
757.379577637,9955.05
757.645080566,10002.95
757.910583496,9959.3
758.175964355,9901.275
758.441345215,9866.45
758.706848145,9739.65
758.972106934,9752.375
759.237426758,9744.925
759.502807617,9784.0
759.768005371,9785.775
760.03326416,9705.7
760.298522949,9631.85
760.563659668,9660.425
760.828857422,9660.725
761.093994141,9628.925
761.359130859,9585.15
761.624206543,9567.525
761.889282227,9518.775
762.15423584,9523.0
762.419250488,9502.95
762.684265137,9435.7
762.949157715,9420.375
763.214050293,9402.05
763.479003906,9365.225
763.743835449,9319.45
764.008666992,9328.525
764.2734375,9304.75
764.538208008,9337.65
764.802978516,9324.85
765.067687988,9294.675
765.332397461,9308.15
765.597045898,9253.2
765.861694336,9241.825
766.126342773,9171.5
766.390930176,9166.25
766.655395508,9119.625
766.920043945,9098.875
767.184509277,9076.275
767.448974609,9083.5
767.713439941,9039.9
767.977783203,9014.55
768.2421875,9026.325
768.506591797,8956.925
768.770874023,9043.125
769.03515625,8997.2
769.299499512,8969.975
769.563720703,8987.925
769.827941895,8922.225
770.092163086,8910.825
770.356323242,8870.55
770.620483398,8925.875
770.88458252,8907.225
771.148681641,8897.8
771.412719727,8888.7
771.676757812,8874.15
771.940734863,8818.7
772.204711914,8842.45
772.468688965,8796.2
772.73260498,8781.575
772.996459961,8782.575
773.260314941,7817.475
773.524169922,1017.425
773.787963867,149.175
774.051696777,123.125
774.315551758,118.075
774.579223633,120.175
774.842895508,117.725
775.106567383,117.75
775.370239258,118.25
775.633789062,121.825
775.897399902,123.85
776.160949707,115.775
776.424499512,122.1
776.687988281,122.35
776.951477051,123.75
777.214904785,118.325
777.47833252,119.625
