191.299911499,100.15
191.603515625,101.325
191.907119751,95.275
192.210693359,105.95
192.514251709,100.45
192.817810059,102.625
193.121368408,102.425
193.42489624,104.575
193.728408813,99.05
194.031936646,96.5
194.33543396,93.525
194.638916016,107.075
194.94241333,96.45
195.245880127,95.775
195.549331665,94.45
195.852767944,99.575
196.156204224,196.025
196.459625244,193.1
196.763015747,192.7
197.066436768,202.225
197.369812012,193.55
197.673187256,201.375
197.9765625,192.5
198.279922485,195.475
198.583251953,192.875
198.886581421,190.5
199.18989563,202.825
199.493209839,196.1
199.79649353,187.125
200.09979248,201.775
200.403076172,193.975
200.706314087,199.975
201.009567261,195.8
201.312820435,196.025
201.616027832,189.15
201.919235229,183.65
202.222457886,190.075
202.525634766,191.075
202.828826904,184.1
203.132003784,181.8
203.435150146,190.025
203.738296509,185.35
204.041412354,185.8
204.344558716,187.925
204.647659302,194.675
204.950759888,191.325
205.253845215,191.0
205.556930542,184.5
205.859985352,188.55
206.163024902,190.175
206.466079712,192.475
206.769104004,201.5
207.072113037,189.925
207.375137329,195.15
207.678131104,191.475
207.981109619,196.8
208.284088135,191.025
208.587036133,196.85
208.889984131,197.05
209.19291687,195.175
209.495849609,198.25
209.798751831,198.775
210.101654053,197.25
210.404556274,197.15
210.707427979,196.8
211.010269165,203.0
211.31312561,201.775
211.615982056,203.625
211.918807983,206.175
212.221618652,202.925
212.524429321,199.175
212.827224731,206.825
213.130004883,206.125
213.432769775,211.1
213.735534668,207.5
214.038269043,211.375
214.341003418,212.325
214.643737793,215.775
214.946456909,216.425
215.249145508,216.375
215.551834106,221.15
215.854507446,222.75
216.157165527,219.4
216.45980835,222.375
216.762451172,226.675
217.065078735,226.45
217.36769104,226.425
217.670303345,229.65
217.972885132,232.425
218.275466919,237.175
218.578048706,230.175
218.880599976,241.05
219.183120728,241.2
219.485656738,246.75
219.788192749,262.0
220.090682983,265.225
220.393188477,287.675
220.695663452,310.95
220.998138428,336.475
221.300582886,377.125
221.603042603,409.95
221.905487061,456.35
222.207901001,516.225
222.510299683,589.075
222.812728882,669.475
223.115097046,755.075
223.41746521,846.175
223.719848633,951.8
224.022171021,1051.65
224.324508667,1157.625
224.626846313,1301.875
224.929168701,1417.0
225.231460571,1546.575
225.533737183,1658.175
225.836013794,1796.625
226.138290405,1923.325
226.440536499,2040.7
226.742767334,2155.225
227.044998169,2289.775
227.347213745,2416.5
227.649429321,2522.9
227.951629639,2613.0
228.253799438,2715.15
228.555953979,2810.425
228.858123779,2912.05
229.160263062,2974.875
229.462371826,3068.225
229.764511108,3139.85
230.066619873,3194.45
230.36869812,3291.625
230.670776367,3376.925
230.972854614,3454.85
231.274902344,3534.325
231.576950073,3629.8
231.878967285,3700.6
232.180999756,3802.35
232.48298645,3873.325
232.784988403,3957.2
233.086975098,4042.075
233.388946533,4122.2
233.69090271,4219.95
233.992858887,4312.3
234.294769287,4361.375
234.596694946,4426.625
234.898605347,4516.75
235.200500488,4561.425
235.502380371,4594.65
235.804244995,4677.125
236.106109619,4679.5
236.407958984,4753.0
236.709777832,4808.775
237.011581421,4838.05
237.313400269,4858.525
237.615203857,4890.9
237.916976929,4949.45
238.21875,4973.375
238.520507812,5042.35
238.822250366,5076.225
239.12399292,5098.375
239.425704956,5135.0
239.727401733,5151.575
240.02911377,5176.225
240.330780029,5181.8
240.632446289,5224.625
240.93409729,5261.775
241.23576355,5290.475
241.537384033,5338.1
241.839004517,5379.95
242.140594482,5419.075
242.442199707,5476.525
242.743774414,5484.975
243.045333862,5541.45
243.346923828,5597.05
243.648452759,5625.8
243.949966431,5649.975
244.251495361,5723.025
244.552993774,5717.45
244.854492188,5724.05
245.155975342,5725.45
245.457443237,5776.425
245.758880615,5767.55
246.060333252,5787.0
246.36177063,5787.15
246.66317749,5802.15
246.964569092,5814.6
247.265945435,5831.7
247.567337036,5836.45
247.86869812,5848.725
248.170059204,5883.375
248.471389771,5889.275
248.772705078,5943.4
249.074035645,5999.775
249.375335693,6044.425
249.676620483,6093.675
249.977890015,6136.375
250.279159546,6270.575
250.58039856,6289.675
250.881637573,6354.375
251.182876587,6430.85
251.484069824,6521.575
251.785263062,6614.725
252.086456299,6724.825
252.387619019,6782.75
252.688781738,6850.1
252.989929199,6962.575
253.291061401,7048.75
253.592178345,7153.9
253.893280029,7219.7
254.194366455,7321.5
254.49546814,7347.975
254.796524048,7367.175
255.097579956,7482.775
255.398620605,7480.925
255.699645996,7543.4
256.000640869,7562.55
256.30166626,7590.825
256.602661133,7688.45
256.903656006,7633.55
257.204589844,7682.15
257.505523682,7619.6
257.80645752,7656.025
258.107391357,7597.75
258.408294678,7597.75
258.709228516,7563.375
259.010070801,7521.275
259.310943604,7502.125
259.611846924,7415.15
259.912658691,7344.15
260.213500977,7329.75
260.514343262,7249.775
260.815124512,7132.85
261.115936279,7096.675
261.416717529,7075.825
261.717468262,7014.775
262.018218994,6973.65
262.318969727,6919.625
262.619689941,6970.775
262.920410156,7001.15
263.221130371,7054.5
263.521789551,7053.65
263.822479248,7055.725
264.123138428,7123.25
264.42376709,7102.975
264.72442627,7082.85
265.025054932,7080.85
265.325622559,7074.2
265.626251221,7058.525
265.926818848,7015.825
266.227386475,6921.575
266.527954102,6859.525
266.828460693,6872.325
267.12902832,6750.975
267.429534912,6672.9
267.730010986,6629.525
268.030517578,6546.65
268.330993652,6461.425
268.631439209,6414.425
268.931915283,6394.8
269.232299805,6334.55
269.532745361,6288.15
269.8331604,6214.775
270.133544922,6159.325
270.433929443,6160.425
270.734313965,6113.0
271.034637451,6108.125
271.334991455,6065.125
271.635314941,6090.75
271.935638428,6084.725
272.235931396,6114.075
272.536254883,6133.675
272.836486816,6196.325
273.136749268,6240.2
273.437011719,6344.75
273.737213135,6417.2
274.037445068,6503.975
274.337677002,6559.25
274.6378479,6645.575
274.938049316,6776.075
275.238220215,6832.15
275.538360596,6949.35
275.838500977,7015.975
276.138641357,7156.175
276.438751221,7199.025
276.738830566,7263.075
277.03894043,7328.375
277.338989258,7442.625
277.639038086,7525.2
277.939056396,7540.8
278.239105225,7586.7
278.539093018,7686.15
278.839141846,7734.25
279.139129639,7744.025
279.439086914,7825.15
279.739044189,7863.925
280.039001465,7967.075
280.338928223,7951.875
280.63885498,8004.225
280.938781738,8046.7
281.238647461,8048.475
281.538513184,8044.2
281.838409424,8104.15
282.138244629,8157.775
282.438079834,8112.0
282.737945557,8145.325
283.037719727,8122.125
283.337524414,8180.45
283.637298584,8174.85
283.937072754,8184.35
284.236816406,8147.925
284.536560059,8147.075
284.836303711,8136.175
285.136016846,8197.25
285.43572998,8184.8
285.735412598,8144.025
286.035064697,8172.75
286.334747314,8172.075
286.634368896,8174.95
286.933990479,8120.125
287.233642578,8081.9
287.533203125,8044.125
287.832824707,7978.05
288.132385254,7865.525
288.431945801,7730.4
288.731506348,7573.3
289.031036377,7415.15
289.330566406,7272.675
289.630065918,7250.5
289.92956543,7219.1
290.229034424,7314.675
290.528503418,7462.475
290.827941895,7620.475
291.127380371,7789.675
291.42678833,7881.575
291.726226807,8009.975
292.025604248,8026.275
292.324981689,8065.5
292.624359131,8049.7
292.923736572,8082.925
293.223052979,8080.575
293.522369385,8054.225
293.821685791,8005.125
294.12097168,7997.375
294.420257568,7948.525
294.719543457,7928.425
295.018768311,7930.475
295.318023682,7873.35
295.617248535,7773.425
295.916442871,7719.925
296.215667725,7658.95
296.514862061,7521.45
296.813995361,7310.1
297.11315918,7119.325
297.412322998,6990.675
297.711425781,6932.2
298.010559082,7109.45
298.309631348,7291.65
298.608734131,7501.65
298.907806396,7669.525
299.206848145,7808.125
299.505889893,7878.15
299.804901123,7980.925
300.103912354,8060.225
300.402954102,8139.6
300.701904297,8209.1
301.00088501,8267.8
301.299835205,8299.75
301.5987854,8349.0
301.897735596,8432.775
302.196624756,8477.05
302.495513916,8549.35
302.794403076,8574.8
303.093292236,8641.125
303.392120361,8698.325
303.690979004,8740.025
303.989837646,8808.075
304.288604736,8843.45
304.587402344,8821.725
304.886199951,8864.775
305.184967041,8929.95
305.483734131,8982.525
305.782501221,9020.675
306.081176758,8997.8
306.37991333,9051.7
306.678619385,9025.4
306.977294922,9050.9
307.275970459,9052.825
307.574645996,9067.375
307.873260498,9069.5
308.171875,9064.9
308.470489502,9085.975
308.769104004,9000.0
309.067687988,8989.1
309.366241455,8998.475
309.664794922,8959.125
309.963348389,8967.575
310.261871338,8946.775
310.560394287,8934.35
310.858856201,8990.325
311.157348633,8993.25
311.455810547,8998.3
311.754272461,9026.3
312.052703857,9100.55
312.351135254,9151.7
312.649536133,9149.0
312.947937012,9055.325
313.246307373,9103.075
313.544647217,9117.1
313.843017578,9058.125
314.141387939,9040.625
314.439697266,9072.45
314.738006592,8962.075
315.036315918,8914.15
315.334564209,8832.55
315.6328125,8776.35
315.931091309,8716.4
316.229309082,8601.175
316.527526855,8458.525
316.825744629,8449.5
317.123901367,8331.125
317.422088623,8283.3
317.720245361,8285.775
318.0184021,8295.1
318.316497803,8347.875
318.614654541,8388.25
318.912750244,8448.3
319.21081543,8426.1
319.50894165,8479.725
319.806945801,8475.275
320.104980469,8482.3
320.403045654,8451.3
320.701049805,8439.35
320.999023438,8385.35
321.297027588,8370.0
321.595001221,8369.275
321.892913818,8294.55
322.190887451,8217.725
322.488830566,8191.65
322.786712646,8144.075
323.084625244,8056.725
323.382507324,8043.05
323.680358887,7956.9
323.978210449,7864.475
324.276062012,7832.225
324.573852539,7754.525
324.871643066,7719.075
325.169464111,7661.775
325.467224121,7582.55
325.764984131,7522.625
326.062744141,7437.725
326.360473633,7357.025
326.658203125,7323.5
326.955871582,7214.875
327.253570557,7163.425
327.551239014,7108.9
327.848907471,7035.9
328.146514893,6985.175
328.444152832,6916.7
328.741790771,6857.525
329.039367676,6811.325
329.336914062,6731.325
329.634521484,6690.45
329.932067871,6663.05
330.229553223,6572.375
330.527160645,6518.55
330.824615479,6455.375
331.12210083,6366.875
331.419586182,6280.45
331.717041016,6211.85
332.014465332,6145.675
332.311920166,6077.4
332.609313965,6052.8
332.906707764,6036.625
333.204101562,6020.375
333.501495361,6022.45
333.798828125,6074.45
334.096160889,6093.9
334.39352417,6178.675
334.690795898,6223.7
334.988098145,6267.5
335.285400391,6312.725
335.582641602,6318.75
335.879882812,6365.125
336.177124023,6387.275
336.474334717,6454.075
336.77154541,6408.5
337.068725586,6451.5
337.365905762,6447.775
337.66305542,6473.55
337.960205078,6502.65
338.257324219,6522.625
338.554443359,6519.15
338.8515625,6519.2
339.148590088,6541.1
339.445648193,6554.9
339.742736816,6507.125
340.039764404,6499.75
340.336761475,6453.775
340.63381958,6413.125
340.930755615,6372.925
341.227722168,6295.45
341.524688721,6209.2
341.821624756,6187.65
342.118560791,6203.05
342.415496826,6294.775
342.712402344,6401.45
343.009246826,6571.725
343.306121826,6689.625
343.602966309,6737.375
343.899810791,6811.85
344.196624756,6897.25
344.493438721,6923.9
344.79019165,6942.15
345.086975098,7007.5
345.383758545,7072.75
345.680480957,7039.025
345.977203369,7056.3
346.273956299,7095.075
346.570617676,7095.9
346.86730957,7107.525
347.163970947,7084.35
347.460601807,7129.475
347.757232666,7145.925
348.053894043,7135.975
348.350463867,7039.025
348.647064209,7051.45
348.943634033,7019.925
349.24017334,7033.55
349.536712646,6956.625
349.833251953,6989.4
350.129760742,6954.225
350.426208496,6942.775
350.722747803,6913.525
351.019195557,6901.025
351.315612793,6862.6
351.612060547,6846.2
351.908508301,6762.85
352.204864502,6718.675
352.501281738,6669.2
352.797637939,6617.425
353.093963623,6534.125
353.390319824,6483.925
353.686645508,6382.825
353.982940674,6308.625
354.27923584,6291.05
354.575531006,6243.375
354.871765137,6232.6
355.167999268,6191.625
355.464233398,6203.9
355.760437012,6200.225
356.056640625,6210.875
356.352813721,6234.925
356.648956299,6214.925
356.945129395,6231.2
357.241271973,6220.225
357.537384033,6249.25
357.833496094,6200.675
358.129577637,6192.475
358.425628662,6149.325
358.721679688,6138.675
359.017730713,6111.7
359.313720703,6050.475
359.609710693,6015.3
359.905761719,5949.175
360.201721191,5926.7
360.497650146,5872.9
360.793609619,5841.325
361.089538574,5799.65
361.385437012,5704.975
361.681365967,5653.425
361.977233887,5621.775
362.273071289,5554.325
362.568908691,5443.3
362.864746094,5326.075
363.160552979,5193.85
363.456359863,5010.225
363.752166748,4888.85
364.047912598,4811.475
364.343658447,4743.275
364.639434814,4798.4
364.935119629,4836.025
365.230834961,4894.75
365.526550293,4924.775
365.822174072,4933.95
366.117858887,4962.925
366.413482666,4999.925
366.709075928,5027.125
367.004730225,4936.3
367.300292969,4916.45
367.595855713,4982.15
367.891448975,4882.075
368.186981201,4766.25
368.482513428,4723.075
368.778015137,4717.15
369.073547363,4672.825
369.36895752,4685.85
369.664428711,4597.775
369.95993042,4483.725
370.255310059,4431.725
370.550720215,4399.575
370.846160889,4372.3
371.14151001,4319.65
371.436859131,4300.85
371.73223877,4273.075
372.027557373,4247.675
372.322875977,4183.225
372.618164062,4151.275
372.913482666,4109.65
373.208709717,4113.225
373.503967285,4036.725
373.799194336,4004.375
374.094421387,3982.525
374.389648438,3947.875
374.684844971,3951.4
374.979980469,4008.775
375.275146484,4015.875
375.570281982,4047.425
375.865386963,4055.775
376.160522461,3995.325
376.455596924,4017.05
376.750640869,4086.575
377.045715332,4112.15
377.340759277,4128.225
377.635772705,4186.675
377.93081665,4236.025
378.225769043,4292.525
378.520751953,4351.675
378.815734863,4315.075
379.110656738,4481.8
379.405548096,4662.525
379.700500488,4492.55
379.995391846,4286.35
380.290252686,4334.125
380.585083008,4428.95
380.879974365,4496.65
381.17477417,4399.975
381.469543457,4322.05
381.764404297,4322.55
382.059143066,4373.225
382.353912354,4445.9
382.648651123,4535.45
382.943389893,4503.025
383.238067627,4334.5
383.532775879,4341.325
383.827484131,4281.525
384.12210083,4281.55
384.416778564,4222.475
384.711425781,4135.05
385.006011963,4171.4
385.300628662,4128.45
385.595184326,4219.625
385.88973999,4321.8
386.184295654,4414.325
386.478820801,4499.8
386.77331543,4589.4
387.067840576,4709.35
387.362335205,4802.45
387.656768799,4871.65
387.951202393,4906.95
388.245635986,4967.9
388.540039062,5061.05
388.834472656,5120.25
389.128875732,5017.45
389.423187256,4782.45
389.717559814,4729.45
390.011871338,4824.725
390.306182861,4878.45
390.600463867,4895.85
390.894775391,4963.15
391.189025879,4996.175
391.48324585,4985.95
391.777526855,5033.375
392.071685791,5219.875
392.365875244,5312.45
392.660064697,5401.775
392.95425415,5747.975
393.248382568,5705.45
393.542510986,5247.125
393.836608887,5064.6
394.130706787,5082.3
394.424804688,5008.55
394.71887207,5140.3
395.012878418,5124.85
395.306915283,5015.7
395.600921631,4930.55
395.894927979,4901.35
396.188903809,4950.85
396.482879639,4956.625
396.776794434,5165.5
397.070739746,5136.8
397.364654541,5144.975
397.658538818,5557.425
397.952423096,5573.7
398.246307373,5525.825
398.540100098,6074.8
398.833953857,5948.8
399.127746582,5452.65
399.421508789,5471.75
399.715301514,5391.05
400.009063721,5327.4
400.30279541,5163.425
400.596496582,5049.9
400.890258789,5234.125
401.183929443,5334.7
401.47756958,5212.0
401.771240234,4969.2
402.064880371,4977.25
402.35848999,5039.65
402.652130127,4937.3
402.945678711,5004.075
403.239257812,4942.35
403.532775879,4883.55
403.82635498,4931.65
404.119842529,4854.575
404.413360596,4821.05
404.706848145,4892.35
405.000274658,4829.925
405.293762207,4888.15
405.587188721,4967.525
405.880584717,4795.1
406.17401123,4625.2
406.467407227,4402.7
406.760742188,4407.775
407.054107666,4454.85
407.347442627,4380.725
407.640716553,4358.425
407.934051514,4415.25
408.227325439,4475.125
408.520568848,4695.65
408.813842773,4784.25
409.107086182,4592.9
409.400238037,4541.725
409.693450928,4462.9
409.986633301,4575.9
410.279754639,4507.025
410.572875977,4198.925
410.86605835,4142.05
411.159118652,4141.5
411.452209473,4159.25
411.745330811,4019.05
412.038360596,3936.575
412.331390381,3981.875
412.624420166,4017.65
412.917388916,3921.775
413.210388184,3748.975
413.503387451,3717.3
413.796295166,3607.525
414.089233398,3425.4
414.382141113,3342.5
414.675048828,3334.3
414.967926025,3375.725
415.260803223,3305.0
415.55368042,3328.725
415.846466064,3297.875
416.139282227,3382.85
416.432098389,3505.15
416.724853516,3480.9
417.017608643,3416.375
417.31036377,3449.45
417.603088379,3569.425
417.895782471,3559.025
418.188476562,3511.8
418.481140137,3592.375
418.773803711,3629.775
419.066436768,3612.85
419.359039307,3679.35
419.651641846,3702.2
419.944244385,3693.05
420.236816406,3643.9
420.529327393,3845.975
420.821899414,3942.05
421.114379883,3861.575
421.406860352,4133.725
421.699371338,4345.05
421.991821289,4324.075
422.284240723,4109.85
422.576721191,3958.05
422.869110107,3843.775
423.161468506,3775.575
423.453857422,3817.125
423.74621582,3701.3
424.038543701,3568.275
424.330871582,3530.8
424.623168945,3450.55
424.915435791,3612.05
425.207702637,3561.85
425.499969482,3498.4
425.792205811,3435.075
426.084411621,3187.725
426.376617432,3278.6
426.668762207,3345.85
426.9609375,3229.875
427.253082275,3343.55
427.545196533,3739.925
427.837310791,3475.9
428.129425049,3186.55
428.421447754,3399.4
428.713531494,3407.275
429.005554199,3381.75
429.297576904,3379.5
429.589599609,3831.075
429.881561279,4144.775
430.173522949,3935.075
430.465484619,3891.2
430.757415771,3967.375
431.049316406,3725.1
431.341186523,3479.775
431.633117676,3386.5
431.924957275,3069.75
432.21673584,2964.375
432.508636475,3124.775
432.800415039,3127.8
433.092163086,3020.375
433.383972168,3001.7
433.675689697,3715.45
433.967437744,4224.975
434.259155273,3262.725
434.550872803,2940.6
434.842498779,3002.125
435.134185791,3124.425
435.425842285,3152.8
435.717437744,3054.25
436.009063721,2872.55
436.30065918,3013.275
436.592224121,3349.925
436.883758545,3148.175
437.175323486,2892.35
437.466827393,2866.375
437.758331299,2898.375
438.049804688,2899.525
438.341247559,2978.35
438.63269043,3048.9
438.924163818,3040.225
439.215515137,3006.6
439.50692749,2886.6
439.798309326,2904.375
440.089660645,2904.85
440.380981445,2831.65
440.672332764,2806.925
440.963623047,3084.8
441.254882812,3541.2
441.546173096,3731.7
441.837402344,3479.5
442.128631592,3266.525
442.41986084,3269.275
442.711029053,3141.125
443.002197266,3209.025
443.293365479,3402.725
443.584503174,3515.925
443.875610352,3509.55
444.166717529,3235.1
444.457794189,3292.625
444.748840332,3265.125
445.039916992,3221.125
445.330932617,3322.5
445.621948242,3157.45
445.912963867,2965.35
446.203918457,3195.75
446.494812012,3439.4
446.785827637,3236.65
447.076721191,3043.85
447.367584229,3031.0
447.658447266,2996.75
447.949371338,3046.225
448.24017334,2931.5
448.530975342,2856.275
448.821838379,3045.625
449.112579346,3115.225
449.40335083,3026.45
449.694152832,3054.0
449.984863281,3065.15
450.27557373,2995.225
450.56628418,3063.025
450.856933594,3088.65
451.147583008,2924.275
451.438262939,2810.575
451.728881836,3016.225
452.019470215,3114.375
452.310089111,2887.725
452.600646973,2930.4
452.891174316,2989.9
453.181732178,2811.7
453.472229004,2673.15
453.762695312,2800.0
454.053222656,2819.65
454.343658447,2677.025
454.634063721,2622.8
454.924530029,2796.975
455.214935303,2940.75
455.505279541,3007.775
455.795715332,2867.625
456.086029053,2657.725
456.376312256,2653.925
456.666687012,2684.175
456.956939697,2781.325
457.247192383,2791.2
457.537445068,2849.45
457.827728271,3048.6
458.117919922,2988.625
458.408081055,2885.15
458.698303223,3083.45
458.988433838,3016.225
459.278564453,2845.925
459.568725586,3116.575
459.858825684,3245.55
460.148864746,2915.2
460.438995361,2878.7
460.729034424,2950.975
461.019042969,2949.6
461.309082031,3141.425
461.599060059,3031.025
461.889007568,2566.725
462.179016113,2378.95
462.468933105,2610.175
462.75881958,2733.55
463.048736572,2469.65
463.338592529,2755.35
463.628448486,3101.025
463.918365479,2812.725
464.2081604,2958.025
464.497924805,2948.825
464.787780762,3064.65
465.077514648,3353.9
465.367218018,2991.55
465.657012939,3207.425
465.946685791,3584.275
466.236358643,3190.875
466.526092529,2662.325
466.815734863,2663.375
467.105316162,2589.525
467.394927979,2617.4
467.684570312,2474.925
467.974121094,2545.05
468.263671875,2665.575
468.553222656,2455.425
468.842773438,2356.5
469.132232666,2247.925
469.42175293,2264.25
469.711212158,2241.425
470.000640869,2107.075
470.290100098,2170.575
470.579498291,2197.825
470.868835449,2217.0
471.158294678,2180.475
471.447601318,2148.375
471.736907959,2227.675
472.026275635,2295.025
472.315551758,2273.275
472.604797363,2268.725
472.894104004,2404.65
473.183319092,2516.05
473.47253418,2499.6
473.761779785,2493.875
474.05090332,2406.85
474.340087891,2374.175
474.629241943,2300.225
474.918365479,2468.8
475.207427979,2749.45
475.496551514,2782.35
475.785614014,2516.025
476.074645996,2309.625
476.363708496,2399.9
476.652679443,2552.075
476.941650391,2352.95
477.230682373,2202.625
477.519622803,2207.75
477.808502197,2357.05
478.097412109,2631.475
478.386352539,2593.45
478.675201416,2306.9
478.964050293,2207.7
479.25289917,2408.875
479.541717529,2465.175
479.830474854,2287.375
480.11932373,2647.025
480.408050537,2825.2
480.696777344,2440.375
480.985534668,2307.65
481.274200439,2399.85
481.562866211,2653.025
481.851593018,2669.575
482.140197754,2612.275
482.428833008,2463.975
482.717468262,2227.45
483.006011963,2279.05
483.294586182,2400.325
483.5831604,2441.675
483.871673584,2295.575
484.16015625,2442.7
484.448699951,2680.15
484.7371521,2721.75
485.02557373,2727.95
485.314025879,2457.225
485.602416992,3806.875
485.890777588,13529.425
486.179199219,12119.625
486.467559814,3232.75
486.755859375,2345.275
487.044219971,2752.0
487.332519531,2932.075
487.620758057,2517.1
487.908966064,2248.15
488.197265625,2052.175
488.485473633,1945.675
488.773651123,2074.65
489.061859131,2053.425
489.350006104,2013.675
489.638122559,1952.75
489.926300049,1974.275
490.214355469,1908.775
490.502441406,1876.975
490.790527344,1802.025
491.078552246,2000.325
491.366546631,1992.35
491.654602051,1761.825
491.942565918,1841.925
492.230499268,1883.975
492.518493652,1841.05
492.806396484,1878.825
493.094268799,1795.7
493.382202148,1828.075
493.670074463,1949.875
493.957885742,1792.225
494.245727539,1777.55
494.533508301,1956.5
494.821289062,1834.525
495.109100342,1678.9
495.396850586,1636.35
495.684539795,1591.4
495.972290039,1809.65
496.25994873,2158.45
496.547607422,2162.5
496.835296631,1987.575
497.122894287,1657.5
497.410522461,1568.35
497.6980896,1577.525
497.985687256,1545.15
498.273223877,1645.9
498.560760498,1723.625
498.848266602,1744.175
499.135772705,1708.3
499.423217773,1763.175
499.710693359,1860.075
499.998138428,1797.3
500.285522461,1626.475
500.572937012,1546.425
500.860290527,1601.475
501.147644043,1706.85
501.434997559,1936.0
501.722290039,1814.3
502.00958252,1564.825
502.296875,1830.65
502.584106445,1813.85
502.871337891,1624.6
503.158599854,1715.525
503.445770264,1784.7
503.732910156,1769.5
504.020141602,1578.7
504.307220459,1554.45
504.594329834,1584.8
504.881469727,1539.9
505.168518066,1608.275
505.455535889,1672.4
505.742614746,1539.45
506.029632568,1482.45
506.316589355,1677.5
506.603637695,1759.9
506.890563965,1562.65
507.177459717,1393.875
507.464385986,1315.875
507.751312256,1540.025
508.038146973,1616.975
508.325012207,1483.125
508.611877441,1530.0
508.898681641,1546.35
509.185424805,1387.775
509.472259521,1347.125
509.759002686,1434.5
510.045715332,1470.6
510.332458496,1401.875
510.619140625,1471.0
510.905761719,1388.7
511.192504883,1363.8
511.479095459,1415.775
511.765686035,1359.35
512.052307129,1275.45
512.338928223,1232.075
512.625427246,1285.4
512.91204834,1353.85
513.198486328,1313.3
513.484985352,1288.725
513.77142334,1212.875
514.057922363,1256.025
514.344299316,1255.45
514.63079834,1220.6
514.917175293,1208.125
515.203552246,1104.975
515.489868164,1087.45
515.776245117,1206.175
516.0625,1252.5
516.348815918,1161.125
516.635070801,1199.75
516.921325684,1237.45
517.207580566,1188.45
517.493774414,1082.025
517.779968262,1097.725
518.066101074,1137.55
518.352294922,1085.25
518.638366699,1090.5
518.924499512,1181.0
519.210632324,1248.8
519.496643066,1208.125
519.782714844,1116.725
520.068786621,1078.725
520.354736328,1031.025
520.640686035,994.175
520.926757812,1046.025
521.212646484,1114.85
521.498535156,1133.875
521.784484863,1081.65
522.0703125,1004.8
522.356262207,1026.025
522.642089844,1091.175
522.927856445,1082.275
523.213684082,1088.55
523.499511719,1075.125
523.78527832,1117.375
524.070983887,1173.725
524.356750488,1144.95
524.64239502,1097.925
524.928039551,1100.725
525.213806152,1122.4
525.499389648,1103.75
525.784973145,1129.225
526.070617676,1176.825
526.356140137,1143.425
526.641723633,1151.0
526.927307129,1209.3
527.212768555,1225.4
527.498291016,1202.225
527.783752441,1195.35
528.069213867,1172.975
528.354675293,1196.0
528.640014648,1358.55
528.925476074,1431.625
529.21081543,1350.475
529.496154785,1323.025
529.781555176,1297.3
530.066833496,1311.9
530.352050781,1325.775
530.637390137,1324.575
530.922607422,1310.35
531.207824707,1314.45
531.493041992,1298.75
531.778198242,1372.125
532.063354492,1354.35
532.348571777,1287.875
532.633666992,1309.125
532.918762207,1383.175
533.203857422,1473.925
533.488891602,1505.725
533.773925781,1443.725
534.059020996,1422.95
534.343933105,1453.575
534.628967285,1419.475
534.91394043,1440.9
535.198852539,1451.5
535.483703613,1427.775
535.768676758,1368.275
536.053527832,1374.075
536.338317871,1337.125
536.62322998,1263.3
536.90802002,1246.825
537.192810059,1269.25
537.477539062,1340.525
537.762329102,1389.775
538.047058105,1432.725
538.331726074,1462.3
538.616455078,1443.125
538.901123047,1423.75
539.18572998,1465.075
539.470397949,1475.45
539.755004883,1454.4
540.039550781,1424.05
540.32409668,1378.725
540.608703613,1415.75
540.893188477,1519.75
541.17767334,1541.8
541.462158203,1539.125
541.746643066,1482.7
542.031066895,1528.325
542.315429688,1560.825
542.59979248,1565.6
542.884216309,1539.675
543.168579102,1546.1
543.452941895,1542.225
543.737243652,1603.625
544.021484375,1651.75
544.305725098,1634.475
544.590026855,1617.375
544.874267578,1628.05
545.158447266,1692.525
545.442626953,1608.875
545.726806641,1504.925
546.010925293,1540.75
546.29510498,1569.625
546.579162598,1560.475
546.863220215,1600.4
547.147277832,1663.0
547.431335449,1754.075
547.715332031,1811.725
547.999328613,1921.2
548.283325195,1936.725
548.567260742,1779.6
548.851135254,1754.5
549.135070801,1727.15
549.419006348,1632.025
549.702819824,1737.425
549.986755371,1791.65
550.270507812,1770.1
550.554321289,1822.0
550.83807373,1819.0
551.121826172,1775.65
551.405517578,1804.1
551.689331055,1908.5
551.973022461,2145.925
552.256652832,2207.725
552.540344238,2104.5
552.823974609,2077.65
553.107543945,2061.25
553.391174316,2119.025
553.674743652,2182.55
553.958251953,2182.125
554.241821289,2182.5
554.525268555,2130.3
554.808776855,2135.275
555.092285156,2322.45
555.375671387,2410.375
555.659057617,2401.525
555.942504883,2438.575
556.225891113,2471.3
556.509216309,2422.025
556.792541504,2341.625
557.075866699,2406.95
557.359130859,2440.2
557.64239502,2452.5
557.92565918,2518.75
558.208862305,2495.325
558.49206543,2446.025
558.77532959,2460.15
559.058410645,2490.625
559.341552734,2478.375
559.624694824,2545.675
559.907775879,2615.0
560.190856934,2742.475
560.473937988,2728.575
560.756896973,2771.4
561.039978027,2804.85
561.322937012,2763.55
561.605895996,2759.725
561.88885498,2727.8
562.171813965,2726.525
562.454650879,2702.225
562.737548828,2747.4
563.020446777,2815.75
563.303283691,2845.55
563.58605957,2878.225
563.868896484,2887.475
564.151672363,2942.8
564.434387207,2957.825
564.717163086,2944.925
564.99987793,2981.5
565.282531738,3051.7
565.565185547,2984.4
565.847839355,3001.275
566.130432129,3122.275
566.413085938,3103.9
566.695678711,3103.3
566.978149414,3204.5
567.260681152,3369.225
567.543273926,3437.425
567.825744629,3322.925
568.108154297,3379.6
568.390686035,3476.975
568.673095703,3604.65
568.955505371,3669.45
569.237854004,3698.275
569.520202637,3968.525
569.802490234,4198.525
570.084838867,4156.025
570.367126465,3996.25
570.649414062,4001.95
570.93170166,4374.9
571.213928223,4436.05
571.496154785,4180.125
571.778381348,4418.125
572.06048584,4699.725
572.342590332,4210.625
572.624755859,3857.85
572.906860352,3919.675
573.188903809,4616.525
573.470947266,4875.275
573.752990723,4620.125
574.03503418,4733.425
574.317016602,5119.875
574.598937988,4906.65
574.88092041,4778.275
575.162841797,4967.05
575.444763184,4599.9
575.726623535,4325.475
576.008483887,4363.525
576.290344238,4795.45
576.572143555,4985.425
576.853881836,5067.175
577.135681152,4934.125
577.417419434,5001.55
577.699157715,5881.225
577.980895996,6057.075
578.262573242,5364.675
578.544128418,4893.1
578.825866699,4844.275
579.107421875,4517.1
579.388977051,4702.7
579.670593262,5115.975
579.952148438,4950.3
580.233642578,5025.75
580.515197754,5145.65
580.796691895,4847.475
581.078125,5043.25
581.359619141,6571.175
581.640991211,6665.5
581.922363281,5727.25
582.203796387,5800.625
582.485107422,5420.05
582.766418457,5013.25
583.047790527,4860.8
583.329040527,4746.725
583.610290527,4629.975
583.891540527,4723.0
584.172790527,5044.6
584.453918457,5060.875
584.735107422,5120.925
585.016235352,5572.5
585.297363281,5514.275
585.578552246,5322.3
585.859619141,5265.65
586.140625,5028.55
586.421630859,4895.15
586.702697754,4928.475
586.983642578,5153.325
587.264648438,5322.05
587.545654297,5283.325
587.826477051,5220.375
588.107421875,5034.4
588.388305664,5078.8
588.669189453,5163.65
588.950012207,5006.15
589.230834961,4915.425
589.511657715,5010.825
589.792358398,5102.075
590.073120117,5120.35
590.353881836,5069.575
590.63458252,5093.9
590.915283203,5055.775
591.195922852,5059.5
591.4765625,5090.2
591.757202148,5110.425
592.037780762,5098.4
592.31829834,5129.525
592.598937988,5307.75
592.879394531,5499.125
593.159912109,5412.175
593.440429688,5335.2
593.720825195,5321.75
594.001281738,5299.0
594.281677246,5198.0
594.562072754,5222.075
594.842407227,5330.925
595.122802734,5362.05
595.403137207,5333.825
595.683410645,5317.375
595.963623047,5319.525
596.243896484,5275.475
596.524169922,5267.8
596.804382324,5286.725
597.084533691,5293.325
597.364746094,5330.675
597.644836426,5357.0
597.924987793,5355.8
598.205078125,5308.8
598.485107422,5329.825
598.765197754,5452.775
599.045227051,5508.675
599.325195312,5414.2
599.605224609,5363.75
599.885192871,5403.925
600.165100098,5457.075
600.445007324,5401.1
600.724914551,5416.675
601.004760742,5402.925
601.284667969,5439.5
601.56451416,5421.35
601.844238281,5405.1
602.124084473,5435.725
602.403808594,5396.7
602.683532715,5451.875
602.963256836,5433.1
603.242919922,5470.9
603.522583008,5498.175
603.802246094,5496.175
604.081848145,5444.275
604.36138916,5436.775
604.641052246,5458.925
604.920532227,5415.825
605.200073242,5470.025
605.479614258,5476.325
605.759094238,5532.175
606.038574219,5536.1
606.317932129,5464.925
606.597412109,5445.0
606.87677002,5472.25
607.15612793,5493.35
607.435546875,5504.45
607.714782715,5496.925
607.99407959,5467.775
608.273376465,5477.275
608.552612305,5512.35
608.831848145,5525.075
609.111083984,5492.425
609.390258789,5462.35
609.669433594,5456.7
609.948608398,5526.425
610.227722168,5513.325
610.506713867,5441.15
610.785888672,5445.5
611.064880371,5455.5
611.34387207,5465.5
611.622924805,5482.05
611.901916504,5469.0
612.180847168,5446.325
612.459777832,5433.1
612.738647461,5423.475
613.01751709,5389.85
613.296447754,5345.325
613.575317383,5313.6
613.854064941,5266.525
614.132873535,5197.925
614.411621094,5123.125
614.690368652,5102.825
614.969177246,5059.25
615.247802734,4957.55
615.526489258,4956.5
615.805175781,4845.675
616.08380127,4726.45
616.362365723,4642.175
616.640991211,4588.35
616.919555664,4546.525
617.198059082,4644.775
617.4765625,4923.75
617.755126953,5086.2
618.033569336,5103.0
618.311950684,5088.175
618.590454102,5067.75
618.868774414,5054.175
619.147155762,5064.475
619.425598145,5050.575
619.703857422,5071.825
619.982177734,5080.525
620.260498047,5068.6
620.538757324,5067.625
620.816955566,5012.65
621.095214844,4985.225
621.373413086,4990.825
621.651550293,5059.775
621.929748535,5068.475
622.207824707,5052.0
622.485900879,5068.875
622.764038086,5064.325
623.042053223,5104.175
623.320007324,5128.05
623.598083496,5125.65
623.876037598,5093.925
624.153991699,5127.925
624.432006836,5128.775
624.709838867,5145.55
624.987731934,5135.325
625.265563965,5132.15
625.543395996,5168.625
625.821228027,5207.15
626.098999023,5183.0
626.376831055,5254.875
626.654541016,5265.45
626.932250977,5296.225
627.209960938,5331.975
627.487670898,5355.25
627.765319824,5354.675
628.04296875,5355.65
628.320495605,5386.425
628.598083496,5389.1
628.875671387,5417.1
629.153259277,5457.625
629.430725098,5486.725
629.708251953,5479.575
629.985656738,5514.6
630.263122559,5549.875
630.540588379,5577.975
630.817932129,5607.975
631.095275879,5632.95
631.372680664,5635.375
631.649963379,5697.325
631.927246094,5744.125
632.204589844,5793.85
632.481811523,5825.35
632.759033203,5911.65
633.036254883,5916.925
633.313415527,6018.6
633.590576172,6070.2
633.867736816,6158.75
634.144836426,6243.275
634.421875,6266.275
634.698913574,6350.725
634.976013184,6382.15
635.252990723,6440.7
635.529968262,6477.575
635.807006836,6550.525
636.08392334,6539.725
636.360839844,6431.0
636.637756348,6368.15
636.914611816,6323.375
637.191467285,6283.375
637.468261719,6410.15
637.745056152,6341.8
638.021789551,6374.575
638.298583984,6365.925
638.575317383,6418.775
638.851989746,6427.825
639.12878418,6431.875
639.405395508,6396.05
639.682006836,6454.0
639.958618164,6461.175
640.235229492,6413.675
640.511779785,6469.725
640.788330078,6461.725
641.064880371,6453.075
641.341308594,6409.425
641.617797852,6444.2
641.894226074,6449.525
642.170654297,6461.825
642.44708252,6505.625
642.723388672,6468.275
642.999755859,6450.65
643.276123047,6455.625
643.552429199,6465.05
643.828674316,6452.175
644.104919434,6426.1
644.381164551,6406.875
644.657348633,6428.975
644.933532715,6387.05
645.209716797,6403.9
645.485839844,6407.525
645.761901855,6403.425
646.038024902,6402.6
646.314086914,6424.475
646.590087891,6415.075
646.866149902,6422.9
647.142150879,6399.5
647.41809082,6349.25
647.694030762,6377.125
647.969970703,6366.05
648.245788574,6382.3
648.521728516,6398.725
648.797546387,6368.45
649.073303223,6402.475
649.349182129,6388.3
649.624938965,6379.325
649.900634766,6370.225
650.176391602,6375.825
650.452087402,6339.875
650.727783203,6353.2
651.003479004,6362.7
651.279052734,6348.375
651.554626465,6336.95
651.83026123,6338.825
652.105773926,6347.95
652.381286621,6350.4
652.656860352,6346.1
652.932312012,6357.45
653.207763672,6334.575
653.483215332,6372.275
653.758605957,6384.575
654.033935547,6382.5
654.309326172,6371.05
654.584716797,6372.95
654.859985352,6349.25
655.135253906,6403.575
655.410583496,6441.025
655.685791016,7374.275
655.9609375,11522.6
656.236206055,11309.625
656.511291504,7469.1
656.786437988,6582.325
657.061645508,6464.925
657.336669922,6467.6
657.611694336,6471.4
657.886779785,6516.925
658.161804199,6519.825
658.436828613,6488.65
658.711791992,6498.175
658.986755371,6531.6
659.261657715,6546.975
659.536621094,6554.075
659.811401367,6538.925
660.086303711,6573.475
660.36114502,6559.675
660.635864258,6583.475
660.910644531,6597.5
661.185424805,6586.525
661.460205078,6607.625
661.734863281,6614.575
662.009521484,6609.825
662.284179688,6644.45
662.558776855,6678.425
662.833435059,6707.025
663.108032227,6688.75
663.382568359,6663.3
663.657043457,6739.675
663.93157959,6746.35
664.206054688,6740.625
664.48046875,6773.95
664.755004883,6798.0
665.02935791,6812.675
665.303710938,6852.825
665.578125,6827.4
665.852416992,6856.675
666.126708984,6868.35
666.401062012,6846.95
666.675292969,6907.6
666.949462891,6919.825
667.223754883,6879.05
667.497924805,6923.05
667.772094727,6938.925
668.046264648,6931.3
668.3203125,6981.525
668.594421387,7008.7
668.868469238,7029.3
669.14251709,7018.0
669.416503906,7060.725
669.690551758,7054.65
669.964477539,7073.95
670.23840332,7080.325
670.512329102,7070.025
670.786254883,7031.7
671.060058594,7143.7
671.333984375,7129.075
671.607788086,7156.15
671.881530762,7156.25
672.155334473,7186.475
672.429077148,7198.15
672.702758789,7202.975
672.97644043,7207.175
673.25012207,7187.5
673.523742676,7185.45
673.797302246,7209.8
674.070922852,7273.7
674.344482422,7265.075
674.618041992,7266.175
674.891601562,7286.05
675.165100098,7288.775
675.438476562,7274.625
675.711975098,7303.0
675.985412598,7294.25
676.258789062,7281.85
676.532165527,7312.575
676.805480957,7304.9
677.078796387,7336.275
677.352111816,7348.35
677.625366211,7348.8
677.898620605,7339.75
678.171875,7423.05
678.445007324,7376.4
678.718200684,7410.075
678.991394043,7396.5
679.264404297,7397.7
679.537536621,7435.625
679.81060791,7451.325
680.083679199,7437.35
680.356689453,7484.425
680.629699707,7495.175
680.902648926,7459.55
681.175598145,7494.15
681.448547363,7542.1
681.721435547,7497.8
681.99420166,7504.375
682.267150879,7493.875
682.539916992,7570.575
682.812744141,7558.05
683.085510254,7531.775
683.358215332,7547.275
683.63092041,7549.65
683.903625488,7551.375
684.176330566,7542.75
684.448913574,7516.65
684.721557617,7511.325
684.99420166,7585.55
685.266662598,7567.55
685.539245605,7569.75
685.811767578,7607.375
686.084289551,7616.45
686.356689453,7636.6
686.629150391,7648.9
686.901550293,7709.85
687.17401123,7697.125
687.446350098,7723.775
687.718688965,7706.75
687.990966797,7759.425
688.263305664,7767.825
688.535522461,7749.225
688.807739258,7737.175
689.079956055,7814.0
689.352172852,7822.95
689.624328613,7823.0
689.896484375,7842.5
690.168518066,7819.725
690.440612793,7873.1
690.71270752,7894.55
690.984741211,7888.95
691.256713867,7916.5
691.528747559,7891.075
691.800720215,7920.575
692.072631836,7926.4
692.344543457,7955.45
692.616394043,7974.325
692.888244629,8002.2
693.160095215,8041.025
693.431945801,8048.675
693.703674316,8007.25
693.975463867,8011.15
694.247131348,8042.4
694.518859863,8035.275
694.790588379,8077.6
695.062255859,8068.675
695.33380127,8049.425
695.60546875,8070.475
695.87701416,8099.25
696.148498535,8101.625
696.42010498,8129.95
696.691589355,8140.3
696.96307373,8171.525
697.234558105,8209.4
697.50592041,8184.725
697.777282715,8175.575
698.048706055,8212.6
698.320068359,8242.925
698.591308594,8226.15
698.862670898,8199.45
699.133972168,8236.825
699.405151367,8223.8
699.676391602,8292.05
699.947570801,8247.425
700.21875,8270.625
700.489868164,8293.075
700.761047363,8291.1
701.032104492,8322.825
701.303100586,8282.1
701.57421875,8326.375
701.845214844,8328.225
702.116149902,8337.5
702.387207031,8327.725
702.65814209,8370.55
702.928955078,8399.2
703.199951172,8375.65
703.47076416,8350.025
703.741577148,8349.95
704.012451172,8387.55
704.28314209,8369.8
704.553955078,8372.025
704.824707031,8433.8
705.095397949,8424.55
705.366027832,8437.45
705.63671875,8449.9
705.907348633,8396.45
706.17791748,8409.725
706.448486328,8420.475
706.719055176,8472.325
706.989562988,8488.75
707.260131836,8480.325
707.530517578,8466.025
707.800964355,8488.2
708.071411133,8463.3
708.341796875,8457.6
708.612182617,8447.725
708.882446289,8435.3
709.152893066,8452.025
709.423156738,8491.525
709.693359375,8451.05
709.963623047,8475.65
710.233825684,8502.925
710.503967285,8479.225
710.774169922,8473.1
711.044311523,8459.0
711.31439209,8465.575
711.584533691,8484.0
711.854553223,8482.15
712.124572754,8490.775
712.39465332,8422.675
712.664611816,8515.125
712.934509277,8534.075
713.204467773,8462.3
713.474365234,8524.55
713.74420166,8522.95
714.014099121,8552.925
714.283874512,8541.575
714.553710938,8536.775
714.823486328,8522.6
715.093200684,8493.925
715.362915039,8535.6
715.632629395,8514.5
715.902282715,8488.375
716.171875,8489.5
716.441589355,8493.075
716.711181641,8476.35
716.980712891,8487.225
717.250244141,8475.2
717.519775391,8479.6
717.78918457,8470.0
718.058654785,8529.15
718.328125,8519.325
718.597473145,8499.975
718.866882324,8498.85
719.136230469,8516.925
719.405578613,8537.125
719.674865723,8591.025
719.944152832,8543.125
720.213439941,8498.175
720.48260498,8520.125
720.75177002,8523.175
721.020996094,8540.85
721.290100098,8505.325
721.559204102,8478.25
721.828308105,8490.4
722.097351074,8514.35
722.366455078,8492.925
722.635437012,8500.975
722.904418945,8452.125
723.173400879,8503.075
723.442321777,8495.85
723.711181641,8456.125
723.980102539,8483.1
724.248962402,8503.125
724.51776123,8452.225
724.786560059,8490.85
725.055358887,8482.2
725.324035645,8454.95
725.592834473,8458.825
725.86151123,8407.2
726.130187988,8419.0
726.398803711,8397.05
726.667419434,8438.65
726.935974121,8415.475
727.204528809,8312.4
727.473083496,8357.875
727.741638184,8310.75
728.010070801,8308.925
728.278564453,8311.625
728.546936035,8306.725
728.815368652,8232.425
729.08380127,8172.6
729.352111816,8137.475
729.620361328,8077.3
729.88873291,8116.225
730.156982422,8169.125
730.425231934,8145.9
730.693481445,8144.65
730.961669922,8209.375
731.229797363,8231.925
731.49798584,8252.225
731.766113281,8284.95
732.034118652,8346.95
732.302246094,8374.125
732.570251465,8436.4
732.838256836,8452.525
733.106262207,8500.65
733.374145508,8541.075
733.642089844,8571.125
733.909973145,8613.975
734.177856445,8690.9
734.445678711,8770.025
734.713562012,8821.35
734.981323242,8810.625
735.249084473,8891.1
735.516845703,9014.175
735.784545898,9090.575
736.052185059,9103.05
736.319885254,9208.0
736.587524414,9254.075
736.855102539,9280.95
737.122619629,9398.875
737.390197754,9449.175
737.657714844,9497.775
737.925170898,9569.775
738.192749023,9681.4
738.460144043,9726.3
738.727539062,9771.575
738.994995117,9839.025
739.262329102,9946.875
739.529663086,10030.5
739.79699707,10049.825
740.06427002,10103.675
740.331481934,10173.3
740.598754883,10210.375
740.865905762,10237.925
741.133056641,10370.625
741.40032959,10374.425
741.667358398,10459.05
741.934448242,10496.65
742.201599121,10450.825
742.468566895,10568.5
742.735534668,10647.05
743.002563477,10651.975
743.26953125,10668.6
743.536437988,10708.075
743.803405762,10830.4
744.0703125,10745.275
744.337097168,10842.175
744.604003906,10756.5
744.870727539,10828.975
745.137512207,10844.325
745.40423584,10869.475
745.670959473,10839.15
745.93762207,10867.65
746.204284668,10852.25
746.470947266,10846.4
746.737548828,10832.4
747.004089355,10863.025
747.270751953,10889.6
747.53717041,10923.925
747.803710938,10862.425
748.070251465,10843.15
748.336608887,10813.85
748.603027344,10813.65
748.869445801,10840.9
749.135803223,10798.15
749.402099609,10818.225
749.668457031,10808.025
749.934753418,10743.075
750.20098877,10706.5
750.467224121,10771.25
750.733459473,10711.1
750.999572754,10666.9
751.26574707,10599.825
751.531860352,10632.425
751.797912598,10604.875
752.064025879,10572.925
752.330078125,10572.1
752.596069336,10519.6
752.862060547,10487.275
753.127990723,10471.9
753.393920898,10431.425
753.659912109,10412.25
753.925720215,10417.55
754.19152832,10365.725
754.457397461,10295.975
754.723144531,10294.55
754.988952637,10248.45
755.254699707,10271.625
755.520385742,10304.675
755.786071777,10263.575
756.051696777,10224.425
756.317382812,10170.975
756.582946777,10179.875
756.848510742,10167.2
757.114074707,10094.875
757.379577637,10069.575
757.645080566,10121.225
757.910583496,10104.65
758.175964355,10009.825
758.441345215,10011.975
758.706848145,9855.65
758.972106934,9882.35
759.237426758,9893.525
759.502807617,9916.125
759.768005371,9885.0
760.03326416,9830.5
760.298522949,9755.775
760.563659668,9806.5
760.828857422,9749.425
761.093994141,9765.8
761.359130859,9711.925
761.624206543,9688.675
761.889282227,9659.55
762.15423584,9637.65
762.419250488,9629.25
762.684265137,9574.275
762.949157715,9537.65
763.214050293,9499.0
763.479003906,9487.175
763.743835449,9481.775
764.008666992,9414.95
764.2734375,9411.0
764.538208008,9460.0
764.802978516,9468.725
765.067687988,9432.8
765.332397461,9402.575
765.597045898,9370.7
765.861694336,9346.925
766.126342773,9313.2
766.390930176,9259.15
766.655395508,9242.775
766.920043945,9185.825
767.184509277,9193.925
767.448974609,9185.15
767.713439941,9153.95
767.977783203,9119.125
768.2421875,9180.725
768.506591797,9086.225
768.770874023,9155.65
769.03515625,9113.1
769.299499512,9092.65
769.563720703,9075.775
769.827941895,9010.9
770.092163086,9024.975
770.356323242,9001.175
770.620483398,9024.125
770.88458252,9021.75
771.148681641,9026.025
771.412719727,8991.275
771.676757812,8996.925
771.940734863,8942.275
772.204711914,8913.4
772.468688965,8891.7
772.73260498,8897.225
772.996459961,8902.225
773.260314941,7907.525
773.524169922,1019.575
773.787963867,146.55
774.051696777,119.875
774.315551758,122.075
774.579223633,120.775
774.842895508,120.725
775.106567383,119.775
775.370239258,117.975
775.633789062,124.5
775.897399902,125.125
776.160949707,119.7
776.424499512,120.425
776.687988281,124.675
776.951477051,124.15
777.214904785,118.15
777.47833252,120.325
