191.299911499,99.975
191.603515625,101.8
191.907119751,96.975
192.210693359,105.75
192.514251709,98.4
192.817810059,102.55
193.121368408,103.05
193.42489624,108.175
193.728408813,99.45
194.031936646,97.575
194.33543396,93.875
194.638916016,110.775
194.94241333,97.75
195.245880127,97.075
195.549331665,92.425
195.852767944,100.475
196.156204224,193.35
196.459625244,187.65
196.763015747,189.725
197.066436768,195.05
197.369812012,189.625
197.673187256,192.5
197.9765625,184.975
198.279922485,188.0
198.583251953,186.075
198.886581421,190.525
199.18989563,194.65
199.493209839,193.475
199.79649353,185.3
200.09979248,193.225
200.403076172,183.7
200.706314087,193.325
201.009567261,189.45
201.312820435,191.275
201.616027832,184.825
201.919235229,174.45
202.222457886,182.0
202.525634766,189.225
202.828826904,178.175
203.132003784,178.925
203.435150146,180.4
203.738296509,180.75
204.041412354,179.575
204.344558716,182.375
204.647659302,186.125
204.950759888,188.525
205.253845215,182.275
205.556930542,181.35
205.859985352,180.1
206.163024902,182.55
206.466079712,182.875
206.769104004,195.875
207.072113037,187.125
207.375137329,182.975
207.678131104,185.075
207.981109619,185.475
208.284088135,186.1
208.587036133,184.95
208.889984131,190.775
209.19291687,190.0
209.495849609,189.075
209.798751831,191.575
210.101654053,188.875
210.404556274,190.475
210.707427979,190.1
211.010269165,198.925
211.31312561,196.475
211.615982056,196.95
211.918807983,197.95
212.221618652,195.075
212.524429321,188.175
212.827224731,200.625
213.130004883,198.675
213.432769775,200.975
213.735534668,200.775
214.038269043,205.05
214.341003418,205.2
214.643737793,203.2
214.946456909,210.475
215.249145508,214.575
215.551834106,215.7
215.854507446,210.7
216.157165527,209.425
216.45980835,212.9
216.762451172,220.525
217.065078735,218.95
217.36769104,217.475
217.670303345,223.1
217.972885132,222.1
218.275466919,226.45
218.578048706,223.025
218.880599976,232.9
219.183120728,235.225
219.485656738,247.175
219.788192749,262.0
220.090682983,273.25
220.393188477,300.75
220.695663452,334.825
220.998138428,365.025
221.300582886,418.475
221.603042603,459.325
221.905487061,515.925
222.207901001,585.7
222.510299683,663.675
222.812728882,750.85
223.115097046,846.15
223.41746521,943.225
223.719848633,1044.425
224.022171021,1145.075
224.324508667,1257.325
224.626846313,1382.25
224.929168701,1487.075
225.231460571,1643.725
225.533737183,1756.05
225.836013794,1888.325
226.138290405,1997.4
226.440536499,2129.85
226.742767334,2240.775
227.044998169,2339.325
227.347213745,2477.825
227.649429321,2575.725
227.951629639,2661.825
228.253799438,2762.0
228.555953979,2847.5
228.858123779,2932.275
229.160263062,3016.1
229.462371826,3078.125
229.764511108,3135.45
230.066619873,3216.65
230.36869812,3290.925
230.670776367,3332.325
230.972854614,3421.9
231.274902344,3506.425
231.576950073,3599.1
231.878967285,3639.9
232.180999756,3749.3
232.48298645,3793.6
232.784988403,3867.175
233.086975098,3946.8
233.388946533,4000.3
233.69090271,4091.775
233.992858887,4152.025
234.294769287,4196.2
234.596694946,4238.95
234.898605347,4313.575
235.200500488,4314.875
235.502380371,4367.4
235.804244995,4382.8
236.106109619,4382.075
236.407958984,4404.925
236.709777832,4445.6
237.011581421,4456.2
237.313400269,4442.475
237.615203857,4464.75
237.916976929,4477.9
238.21875,4457.375
238.520507812,4457.05
238.822250366,4468.025
239.12399292,4434.8
239.425704956,4448.775
239.727401733,4383.5
240.02911377,4408.0
240.330780029,4370.7
240.632446289,4346.825
240.93409729,4321.3
241.23576355,4336.975
241.537384033,4311.85
241.839004517,4271.825
242.140594482,4264.2
242.442199707,4250.575
242.743774414,4214.6
243.045333862,4181.975
243.346923828,4168.5
243.648452759,4144.525
243.949966431,4081.1
244.251495361,4081.95
244.552993774,4035.8
244.854492188,3975.45
245.155975342,3929.45
245.457443237,3886.925
245.758880615,3835.025
246.060333252,3775.725
246.36177063,3709.225
246.66317749,3669.0
246.964569092,3614.075
247.265945435,3586.275
247.567337036,3511.5
247.86869812,3469.375
248.170059204,3434.425
248.471389771,3403.825
248.772705078,3375.875
249.074035645,3311.675
249.375335693,3317.825
249.676620483,3298.325
249.977890015,3270.675
250.279159546,3270.925
250.58039856,3254.525
250.881637573,3218.8
251.182876587,3241.425
251.484069824,3233.6
251.785263062,3222.15
252.086456299,3250.575
252.387619019,3223.575
252.688781738,3228.325
252.989929199,3224.0
253.291061401,3239.025
253.592178345,3238.7
253.893280029,3247.6
254.194366455,3250.9
254.49546814,3222.3
254.796524048,3219.1
255.097579956,3216.325
255.398620605,3223.45
255.699645996,3228.45
256.000640869,3219.1
256.30166626,3213.4
256.602661133,3227.15
256.903656006,3175.4
257.204589844,3197.65
257.505523682,3161.325
257.80645752,3172.35
258.107391357,3166.225
258.408294678,3151.55
258.709228516,3146.7
259.010070801,3127.625
259.310943604,3099.375
259.611846924,3091.675
259.912658691,3089.4
260.213500977,3058.225
260.514343262,3040.75
260.815124512,3027.925
261.115936279,3017.6
261.416717529,3044.5
261.717468262,3026.575
262.018218994,3041.95
262.318969727,3051.15
262.619689941,3072.825
262.920410156,3117.65
263.221130371,3154.7
263.521789551,3214.2
263.822479248,3243.95
264.123138428,3318.175
264.42376709,3342.65
264.72442627,3365.125
265.025054932,3378.075
265.325622559,3439.8
265.626251221,3462.15
265.926818848,3500.325
266.227386475,3502.975
266.527954102,3521.825
266.828460693,3560.9
267.12902832,3532.375
267.429534912,3563.225
267.730010986,3568.425
268.030517578,3586.45
268.330993652,3598.4
268.631439209,3616.4
268.931915283,3643.9
269.232299805,3660.55
269.532745361,3687.0
269.8331604,3708.85
270.133544922,3718.175
270.433929443,3779.45
270.734313965,3813.325
271.034637451,3847.15
271.334991455,3880.375
271.635314941,3947.8
271.935638428,3995.35
272.235931396,4068.575
272.536254883,4151.35
272.836486816,4239.975
273.136749268,4311.875
273.437011719,4454.675
273.737213135,4551.85
274.037445068,4649.5
274.337677002,4760.275
274.6378479,4878.675
274.938049316,5022.375
275.238220215,5160.075
275.538360596,5299.1
275.838500977,5388.75
276.138641357,5552.9
276.438751221,5654.2
276.738830566,5739.325
277.03894043,5853.65
277.338989258,6010.125
277.639038086,6138.525
277.939056396,6205.925
278.239105225,6282.275
278.539093018,6431.85
278.839141846,6508.3
279.139129639,6600.9
279.439086914,6717.975
279.739044189,6786.2
280.039001465,6914.425
280.338928223,6978.925
280.63885498,7072.375
280.938781738,7152.3
281.238647461,7221.425
281.538513184,7251.275
281.838409424,7339.5
282.138244629,7405.425
282.438079834,7437.225
282.737945557,7498.825
283.037719727,7562.85
283.337524414,7612.725
283.637298584,7623.8
283.937072754,7679.275
284.236816406,7723.1
284.536560059,7731.325
284.836303711,7748.3
285.136016846,7842.025
285.43572998,7853.275
285.735412598,7864.025
286.035064697,7869.075
286.334747314,7943.35
286.634368896,7969.075
286.933990479,7899.45
287.233642578,7868.225
287.533203125,7871.675
287.832824707,7836.5
288.132385254,7749.5
288.431945801,7642.1
288.731506348,7518.85
289.031036377,7347.0
289.330566406,7227.875
289.630065918,7235.825
289.92956543,7225.1
290.229034424,7332.375
290.528503418,7494.675
290.827941895,7651.875
291.127380371,7808.625
291.42678833,7935.925
291.726226807,8080.975
292.025604248,8132.55
292.324981689,8142.475
292.624359131,8173.65
292.923736572,8190.925
293.223052979,8199.65
293.522369385,8199.825
293.821685791,8184.825
294.12097168,8172.25
294.420257568,8090.55
294.719543457,8111.025
295.018768311,8084.675
295.318023682,8044.0
295.617248535,8003.6
295.916442871,7909.075
296.215667725,7813.825
296.514862061,7721.95
296.813995361,7515.3
297.11315918,7300.95
297.412322998,7166.375
297.711425781,7126.2
298.010559082,7282.85
298.309631348,7514.4
298.608734131,7714.275
298.907806396,7904.65
299.206848145,8052.675
299.505889893,8124.325
299.804901123,8255.325
300.103912354,8310.675
300.402954102,8402.75
300.701904297,8471.5
301.00088501,8548.525
301.299835205,8607.2
301.5987854,8612.375
301.897735596,8711.9
302.196624756,8766.125
302.495513916,8865.1
302.794403076,8898.275
303.093292236,8922.55
303.392120361,8996.625
303.690979004,9085.825
303.989837646,9126.225
304.288604736,9155.4
304.587402344,9158.8
304.886199951,9222.575
305.184967041,9231.125
305.483734131,9276.9
305.782501221,9330.975
306.081176758,9348.15
306.37991333,9335.875
306.678619385,9404.95
306.977294922,9400.325
307.275970459,9417.225
307.574645996,9436.4
307.873260498,9410.2
308.171875,9423.025
308.470489502,9409.725
308.769104004,9330.775
309.067687988,9351.775
309.366241455,9333.475
309.664794922,9290.075
309.963348389,9266.925
310.261871338,9313.6
310.560394287,9339.175
310.858856201,9322.825
311.157348633,9367.275
311.455810547,9378.5
311.754272461,9404.875
312.052703857,9446.3
312.351135254,9490.05
312.649536133,9493.225
312.947937012,9446.475
313.246307373,9474.375
313.544647217,9496.825
313.843017578,9426.75
314.141387939,9423.5
314.439697266,9451.975
314.738006592,9348.5
315.036315918,9307.025
315.334564209,9209.825
315.6328125,9157.05
315.931091309,9074.15
316.229309082,8943.7
316.527526855,8839.95
316.825744629,8789.925
317.123901367,8684.05
317.422088623,8648.5
317.720245361,8625.125
318.0184021,8651.175
318.316497803,8689.95
318.614654541,8728.625
318.912750244,8818.85
319.21081543,8798.9
319.50894165,8862.825
319.806945801,8844.575
320.104980469,8832.75
320.403045654,8832.375
320.701049805,8804.575
320.999023438,8795.95
321.297027588,8734.8
321.595001221,8710.525
321.892913818,8663.3
322.190887451,8624.65
322.488830566,8548.225
322.786712646,8493.525
323.084625244,8413.65
323.382507324,8383.675
323.680358887,8299.3
323.978210449,8250.25
324.276062012,8167.95
324.573852539,8126.425
324.871643066,8078.25
325.169464111,7988.25
325.467224121,7920.925
325.764984131,7840.2
326.062744141,7805.65
326.360473633,7709.725
326.658203125,7662.2
326.955871582,7542.25
327.253570557,7507.0
327.551239014,7430.9
327.848907471,7358.075
328.146514893,7294.0
328.444152832,7236.95
328.741790771,7192.5
329.039367676,7125.65
329.336914062,7046.425
329.634521484,6997.2
329.932067871,6953.55
330.229553223,6869.125
330.527160645,6804.7
330.824615479,6769.925
331.12210083,6672.325
331.419586182,6554.65
331.717041016,6530.75
332.014465332,6431.15
332.311920166,6409.05
332.609313965,6331.3
332.906707764,6311.35
333.204101562,6293.85
333.501495361,6298.05
333.798828125,6368.025
334.096160889,6393.9
334.39352417,6478.675
334.690795898,6504.65
334.988098145,6551.5
335.285400391,6607.575
335.582641602,6592.0
335.879882812,6645.075
336.177124023,6688.35
336.474334717,6756.5
336.77154541,6720.7
337.068725586,6736.05
337.365905762,6741.225
337.66305542,6783.65
337.960205078,6794.2
338.257324219,6820.225
338.554443359,6794.425
338.8515625,6835.15
339.148590088,6830.75
339.445648193,6844.2
339.742736816,6805.25
340.039764404,6817.45
340.336761475,6756.025
340.63381958,6699.8
340.930755615,6666.675
341.227722168,6583.375
341.524688721,6518.75
341.821624756,6471.25
342.118560791,6490.65
342.415496826,6570.425
342.712402344,6717.425
343.009246826,6861.9
343.306121826,6981.825
343.602966309,7020.9
343.899810791,7120.775
344.196624756,7192.7
344.493438721,7230.75
344.79019165,7274.1
345.086975098,7338.175
345.383758545,7367.6
345.680480957,7339.275
345.977203369,7364.725
346.273956299,7413.9
346.570617676,7402.65
346.86730957,7428.225
347.163970947,7386.4
347.460601807,7442.725
347.757232666,7428.65
348.053894043,7422.85
348.350463867,7355.975
348.647064209,7327.325
348.943634033,7318.475
349.24017334,7317.225
349.536712646,7280.4
349.833251953,7267.15
350.129760742,7245.625
350.426208496,7229.225
350.722747803,7217.275
351.019195557,7207.5
351.315612793,7157.325
351.612060547,7112.075
351.908508301,7040.15
352.204864502,6971.325
352.501281738,6951.75
352.797637939,6865.0
353.093963623,6773.575
353.390319824,6703.8
353.686645508,6617.75
353.982940674,6548.975
354.27923584,6527.375
354.575531006,6460.95
354.871765137,6441.6
355.167999268,6398.475
355.464233398,6413.875
355.760437012,6401.4
356.056640625,6443.675
356.352813721,6424.375
356.648956299,6416.6
356.945129395,6439.025
357.241271973,6400.825
357.537384033,6435.325
357.833496094,6381.5
358.129577637,6368.0
358.425628662,6330.8
358.721679688,6303.6
359.017730713,6281.225
359.313720703,6217.2
359.609710693,6180.15
359.905761719,6115.35
360.201721191,6062.75
360.497650146,6025.35
360.793609619,6001.775
361.089538574,5908.25
361.385437012,5838.175
361.681365967,5777.6
361.977233887,5732.525
362.273071289,5651.9
362.568908691,5548.7
362.864746094,5416.4
363.160552979,5291.65
363.456359863,5101.3
363.752166748,4981.3
364.047912598,4889.775
364.343658447,4829.425
364.639434814,4881.725
364.935119629,4901.375
365.230834961,4972.6
365.526550293,4985.225
365.822174072,4991.6
366.117858887,4997.75
366.413482666,5035.575
366.709075928,5070.0
367.004730225,4975.45
367.300292969,4955.775
367.595855713,5006.8
367.891448975,4884.075
368.186981201,4767.825
368.482513428,4745.875
368.778015137,4709.525
369.073547363,4680.15
369.36895752,4685.575
369.664428711,4597.6
369.95993042,4466.0
370.255310059,4415.9
370.550720215,4379.175
370.846160889,4335.775
371.14151001,4305.575
371.436859131,4288.25
371.73223877,4253.125
372.027557373,4212.4
372.322875977,4170.675
372.618164062,4116.35
372.913482666,4069.05
373.208709717,4071.3
373.503967285,3997.25
373.799194336,3960.7
374.094421387,3951.75
374.389648438,3910.275
374.684844971,3905.7
374.979980469,3944.125
375.275146484,3957.05
375.570281982,3953.275
375.865386963,3973.55
376.160522461,3919.975
376.455596924,3934.45
376.750640869,4006.025
377.045715332,4021.975
377.340759277,4041.875
377.635772705,4110.825
377.93081665,4139.975
378.225769043,4190.9
378.520751953,4256.575
378.815734863,4207.925
379.110656738,4374.275
379.405548096,4524.3
379.700500488,4378.525
379.995391846,4166.6
380.290252686,4191.7
380.585083008,4313.7
380.879974365,4337.575
381.17477417,4256.3
381.469543457,4193.175
381.764404297,4163.675
382.059143066,4197.625
382.353912354,4297.825
382.648651123,4365.025
382.943389893,4345.975
383.238067627,4198.625
383.532775879,4165.35
383.827484131,4120.075
384.12210083,4126.6
384.416778564,4084.9
384.711425781,3978.375
385.006011963,3994.85
385.300628662,3970.1
385.595184326,4044.575
385.88973999,4136.775
386.184295654,4243.5
386.478820801,4319.125
386.77331543,4395.45
387.067840576,4510.975
387.362335205,4595.825
387.656768799,4664.5
387.951202393,4694.325
388.245635986,4776.25
388.540039062,4823.475
388.834472656,4888.4
389.128875732,4797.4
389.423187256,4581.35
389.717559814,4514.35
390.011871338,4616.275
390.306182861,4658.3
390.600463867,4647.875
390.894775391,4726.75
391.189025879,4756.25
391.48324585,4755.65
391.777526855,4794.2
392.071685791,4999.5
392.365875244,5098.025
392.660064697,5154.25
392.95425415,5482.15
393.248382568,5461.575
393.542510986,4990.175
393.836608887,4840.0
394.130706787,4822.1
394.424804688,4762.4
394.71887207,4898.275
395.012878418,4884.225
395.306915283,4766.325
395.600921631,4690.95
395.894927979,4674.725
396.188903809,4718.9
396.482879639,4721.925
396.776794434,4922.2
397.070739746,4884.025
397.364654541,4904.875
397.658538818,5294.35
397.952423096,5320.675
398.246307373,5268.15
398.540100098,5776.7
398.833953857,5676.325
399.127746582,5192.55
399.421508789,5203.65
399.715301514,5142.7
400.009063721,5079.125
400.30279541,4931.3
400.596496582,4830.675
400.890258789,4998.625
401.183929443,5077.525
401.47756958,4978.475
401.771240234,4740.525
402.064880371,4758.775
402.35848999,4800.45
402.652130127,4702.425
402.945678711,4759.775
403.239257812,4717.725
403.532775879,4673.375
403.82635498,4728.95
404.119842529,4628.5
404.413360596,4625.6
404.706848145,4677.475
405.000274658,4610.25
405.293762207,4683.0
405.587188721,4747.55
405.880584717,4602.7
406.17401123,4400.675
406.467407227,4226.375
406.760742188,4238.7
407.054107666,4249.275
407.347442627,4190.0
407.640716553,4184.825
407.934051514,4237.35
408.227325439,4317.45
408.520568848,4512.05
408.813842773,4614.275
409.107086182,4428.3
409.400238037,4360.45
409.693450928,4299.825
409.986633301,4429.75
410.279754639,4360.775
410.572875977,4059.925
410.86605835,3971.875
411.159118652,4008.325
411.452209473,4018.6
411.745330811,3879.05
412.038360596,3787.425
412.331390381,3834.75
412.624420166,3873.325
412.917388916,3798.825
413.210388184,3611.5
413.503387451,3593.5
413.796295166,3501.375
414.089233398,3344.275
414.382141113,3250.075
414.675048828,3226.3
414.967926025,3284.375
415.260803223,3220.425
415.55368042,3233.9
415.846466064,3200.05
416.139282227,3288.55
416.432098389,3418.9
416.724853516,3406.225
417.017608643,3333.75
417.31036377,3352.475
417.603088379,3506.5
417.895782471,3458.275
418.188476562,3438.825
418.481140137,3512.55
418.773803711,3544.1
419.066436768,3536.225
419.359039307,3603.3
419.651641846,3622.0
419.944244385,3601.525
420.236816406,3583.1
420.529327393,3775.225
420.821899414,3863.225
421.114379883,3790.825
421.406860352,4063.95
421.699371338,4260.8
421.991821289,4223.35
422.284240723,4025.475
422.576721191,3871.475
422.869110107,3768.8
423.161468506,3724.925
423.453857422,3755.55
423.74621582,3646.975
424.038543701,3521.675
424.330871582,3480.625
424.623168945,3432.2
424.915435791,3549.4
425.207702637,3513.725
425.499969482,3464.2
425.792205811,3397.5
426.084411621,3151.3
426.376617432,3239.1
426.668762207,3313.3
426.9609375,3199.975
427.253082275,3308.05
427.545196533,3724.725
427.837310791,3432.325
428.129425049,3165.975
428.421447754,3360.425
428.713531494,3363.825
429.005554199,3380.225
429.297576904,3388.5
429.589599609,3808.75
429.881561279,4124.225
430.173522949,3913.825
430.465484619,3871.8
430.757415771,3945.575
431.049316406,3702.575
431.341186523,3484.825
431.633117676,3369.6
431.924957275,3065.35
432.21673584,2954.4
432.508636475,3115.275
432.800415039,3135.15
433.092163086,3032.8
433.383972168,3007.575
433.675689697,3720.45
433.967437744,4218.325
434.259155273,3242.0
434.550872803,2931.325
434.842498779,3001.55
435.134185791,3133.5
435.425842285,3155.05
435.717437744,3058.825
436.009063721,2873.225
436.30065918,3008.5
436.592224121,3366.675
436.883758545,3177.2
437.175323486,2889.0
437.466827393,2869.4
437.758331299,2886.275
438.049804688,2901.225
438.341247559,2983.225
438.63269043,3060.825
438.924163818,3058.775
439.215515137,2998.7
439.50692749,2899.6
439.798309326,2923.95
440.089660645,2917.05
440.380981445,2831.425
440.672332764,2844.225
440.963623047,3101.525
441.254882812,3572.125
441.546173096,3773.2
441.837402344,3483.175
442.128631592,3290.125
442.41986084,3276.025
442.711029053,3156.5
443.002197266,3228.1
443.293365479,3407.125
443.584503174,3543.8
443.875610352,3521.775
444.166717529,3254.975
444.457794189,3301.425
444.748840332,3297.775
445.039916992,3244.0
445.330932617,3350.25
445.621948242,3183.425
445.912963867,2989.025
446.203918457,3232.825
446.494812012,3461.7
446.785827637,3252.025
447.076721191,3068.325
447.367584229,3052.925
447.658447266,3023.85
447.949371338,3070.725
448.24017334,2944.85
448.530975342,2876.65
448.821838379,3042.525
449.112579346,3123.625
449.40335083,3060.775
449.694152832,3095.45
449.984863281,3098.3
450.27557373,3037.175
450.56628418,3091.15
450.856933594,3111.975
451.147583008,2946.25
451.438262939,2843.975
451.728881836,3066.925
452.019470215,3146.4
452.310089111,2931.875
452.600646973,2963.475
452.891174316,3028.875
453.181732178,2839.5
453.472229004,2704.85
453.762695312,2821.175
454.053222656,2857.225
454.343658447,2714.15
454.634063721,2651.325
454.924530029,2825.6
455.214935303,2986.5
455.505279541,3053.575
455.795715332,2897.225
456.086029053,2718.225
456.376312256,2686.225
456.666687012,2706.55
456.956939697,2828.25
457.247192383,2810.275
457.537445068,2886.275
457.827728271,3085.375
458.117919922,3001.1
458.408081055,2938.4
458.698303223,3121.65
458.988433838,3060.8
459.278564453,2865.675
459.568725586,3150.025
459.858825684,3278.875
460.148864746,2960.3
460.438995361,2919.025
460.729034424,2987.8
461.019042969,2965.45
461.309082031,3179.675
461.599060059,3058.9
461.889007568,2597.2
462.179016113,2420.725
462.468933105,2656.375
462.75881958,2765.35
463.048736572,2511.475
463.338592529,2762.475
463.628448486,3127.75
463.918365479,2838.225
464.2081604,3005.575
464.497924805,2974.375
464.787780762,3088.525
465.077514648,3392.875
465.367218018,3024.8
465.657012939,3228.875
465.946685791,3637.125
466.236358643,3235.625
466.526092529,2695.475
466.815734863,2693.35
467.105316162,2629.725
467.394927979,2669.35
467.684570312,2510.35
467.974121094,2578.85
468.263671875,2712.3
468.553222656,2500.3
468.842773438,2394.375
469.132232666,2272.25
469.42175293,2313.1
469.711212158,2274.55
470.000640869,2145.85
470.290100098,2194.55
470.579498291,2258.15
470.868835449,2248.125
471.158294678,2201.75
471.447601318,2188.4
471.736907959,2260.825
472.026275635,2318.5
472.315551758,2293.95
472.604797363,2306.175
472.894104004,2428.05
473.183319092,2552.525
473.47253418,2542.5
473.761779785,2522.075
474.05090332,2451.45
474.340087891,2398.025
474.629241943,2345.15
474.918365479,2511.5
475.207427979,2793.075
475.496551514,2810.55
475.785614014,2555.4
476.074645996,2354.725
476.363708496,2443.7
476.652679443,2590.15
476.941650391,2410.1
477.230682373,2239.775
477.519622803,2250.85
477.808502197,2392.4
478.097412109,2663.85
478.386352539,2625.3
478.675201416,2343.3
478.964050293,2247.3
479.25289917,2438.2
479.541717529,2495.725
479.830474854,2346.325
480.11932373,2697.675
480.408050537,2869.325
480.696777344,2481.175
480.985534668,2352.825
481.274200439,2439.25
481.562866211,2699.25
481.851593018,2721.75
482.140197754,2653.75
482.428833008,2506.05
482.717468262,2292.75
483.006011963,2321.55
483.294586182,2454.075
483.5831604,2488.075
483.871673584,2334.15
484.16015625,2494.35
484.448699951,2747.925
484.7371521,2780.35
485.02557373,2787.25
485.314025879,2508.55
485.602416992,3877.0
485.890777588,13783.875
486.179199219,12353.925
486.467559814,3300.875
486.755859375,2388.75
487.044219971,2790.25
487.332519531,2993.55
487.620758057,2569.925
487.908966064,2301.925
488.197265625,2086.675
488.485473633,1993.45
488.773651123,2107.55
489.061859131,2124.55
489.350006104,2051.05
489.638122559,2005.175
489.926300049,2027.875
490.214355469,1966.2
490.502441406,1916.075
490.790527344,1853.6
491.078552246,2044.35
491.366546631,2050.75
491.654602051,1791.725
491.942565918,1887.8
492.230499268,1934.825
492.518493652,1898.375
492.806396484,1925.025
493.094268799,1823.875
493.382202148,1874.625
493.670074463,1997.325
493.957885742,1828.575
494.245727539,1827.725
494.533508301,2004.875
494.821289062,1885.375
495.109100342,1726.025
495.396850586,1679.825
495.684539795,1635.15
495.972290039,1855.925
496.25994873,2218.325
496.547607422,2212.2
496.835296631,2029.65
497.122894287,1691.075
497.410522461,1618.25
497.6980896,1607.975
497.985687256,1588.525
498.273223877,1691.25
498.560760498,1758.175
498.848266602,1781.5
499.135772705,1762.225
499.423217773,1793.95
499.710693359,1913.95
499.998138428,1835.0
500.285522461,1680.3
500.572937012,1595.1
500.860290527,1641.3
501.147644043,1753.25
501.434997559,1999.45
501.722290039,1856.65
502.00958252,1602.825
502.296875,1890.1
502.584106445,1874.55
502.871337891,1677.9
503.158599854,1760.025
503.445770264,1844.3
503.732910156,1825.4
504.020141602,1634.325
504.307220459,1617.7
504.594329834,1645.8
504.881469727,1578.7
505.168518066,1653.475
505.455535889,1721.825
505.742614746,1598.275
506.029632568,1523.3
506.316589355,1713.775
506.603637695,1808.9
506.890563965,1610.95
507.177459717,1435.65
507.464385986,1349.5
507.751312256,1584.65
508.038146973,1673.95
508.325012207,1527.775
508.611877441,1574.75
508.898681641,1588.5
509.185424805,1422.425
509.472259521,1379.625
509.759002686,1464.4
510.045715332,1500.85
510.332458496,1451.85
510.619140625,1510.25
510.905761719,1424.15
511.192504883,1410.575
511.479095459,1450.225
511.765686035,1406.425
512.052307129,1323.425
512.338928223,1258.725
512.625427246,1321.3
512.91204834,1385.075
513.198486328,1364.45
513.484985352,1329.625
513.77142334,1252.0
514.057922363,1303.35
514.344299316,1298.65
514.63079834,1253.525
514.917175293,1236.55
515.203552246,1139.8
515.489868164,1113.1
515.776245117,1232.775
516.0625,1279.6
516.348815918,1198.175
516.635070801,1224.075
516.921325684,1279.75
517.207580566,1211.95
517.493774414,1115.325
517.779968262,1133.125
518.066101074,1175.425
518.352294922,1118.05
518.638366699,1125.05
518.924499512,1199.125
519.210632324,1279.0
519.496643066,1235.525
519.782714844,1151.625
520.068786621,1103.825
520.354736328,1067.25
520.640686035,1027.875
520.926757812,1079.075
521.212646484,1151.65
521.498535156,1155.0
521.784484863,1097.375
522.0703125,1031.425
522.356262207,1047.15
522.642089844,1137.725
522.927856445,1111.65
523.213684082,1115.1
523.499511719,1105.775
523.78527832,1142.95
524.070983887,1202.475
524.356750488,1176.075
524.64239502,1140.875
524.928039551,1133.125
525.213806152,1148.35
525.499389648,1134.6
525.784973145,1161.675
526.070617676,1212.45
526.356140137,1172.725
526.641723633,1177.975
526.927307129,1245.9
527.212768555,1254.9
527.498291016,1226.8
527.783752441,1223.725
528.069213867,1210.55
528.354675293,1234.425
528.640014648,1389.4
528.925476074,1466.55
529.21081543,1382.175
529.496154785,1372.85
529.781555176,1325.95
530.066833496,1338.5
530.352050781,1363.575
530.637390137,1347.95
530.922607422,1337.025
531.207824707,1355.15
531.493041992,1324.925
531.778198242,1412.875
532.063354492,1379.45
532.348571777,1327.25
532.633666992,1345.725
532.918762207,1416.9
533.203857422,1507.6
533.488891602,1535.675
533.773925781,1479.575
534.059020996,1440.875
534.343933105,1490.9
534.628967285,1457.575
534.91394043,1469.475
535.198852539,1490.2
535.483703613,1468.95
535.768676758,1399.05
536.053527832,1401.75
536.338317871,1361.325
536.62322998,1300.075
536.90802002,1279.35
537.192810059,1290.375
537.477539062,1384.725
537.762329102,1428.875
538.047058105,1465.8
538.331726074,1494.45
538.616455078,1485.375
538.901123047,1456.95
539.18572998,1502.55
539.470397949,1510.6
539.755004883,1504.05
540.039550781,1459.025
540.32409668,1415.625
540.608703613,1462.525
540.893188477,1547.45
541.17767334,1557.8
541.462158203,1575.65
541.746643066,1528.925
542.031066895,1560.425
542.315429688,1600.0
542.59979248,1607.825
542.884216309,1591.025
543.168579102,1581.4
543.452941895,1584.95
543.737243652,1655.9
544.021484375,1693.325
544.305725098,1673.975
544.590026855,1662.025
544.874267578,1674.15
545.158447266,1742.1
545.442626953,1660.45
545.726806641,1551.775
546.010925293,1578.35
546.29510498,1608.875
546.579162598,1605.525
546.863220215,1642.225
547.147277832,1712.375
547.431335449,1778.325
547.715332031,1857.175
547.999328613,1969.125
548.283325195,1980.275
548.567260742,1826.15
548.851135254,1804.5
549.135070801,1764.6
549.419006348,1675.85
549.702819824,1778.575
549.986755371,1843.725
550.270507812,1814.025
550.554321289,1867.975
550.83807373,1872.525
551.121826172,1836.125
551.405517578,1853.475
551.689331055,1957.225
551.973022461,2196.175
552.256652832,2268.6
552.540344238,2152.925
552.823974609,2144.65
553.107543945,2131.175
553.391174316,2187.45
553.674743652,2255.6
553.958251953,2243.4
554.241821289,2263.5
554.525268555,2212.95
554.808776855,2193.575
555.092285156,2394.425
555.375671387,2476.625
555.659057617,2472.75
555.942504883,2495.975
556.225891113,2542.675
556.509216309,2498.775
556.792541504,2411.05
557.075866699,2485.0
557.359130859,2534.7
557.64239502,2518.15
557.92565918,2610.95
558.208862305,2580.05
558.49206543,2522.175
558.77532959,2542.25
559.058410645,2576.675
559.341552734,2576.675
559.624694824,2615.275
559.907775879,2713.4
560.190856934,2833.525
560.473937988,2818.65
560.756896973,2865.5
561.039978027,2897.675
561.322937012,2849.975
561.605895996,2861.175
561.88885498,2823.175
562.171813965,2815.9
562.454650879,2806.4
562.737548828,2841.625
563.020446777,2918.225
563.303283691,2944.675
563.58605957,2985.125
563.868896484,2998.65
564.151672363,3051.5
564.434387207,3074.7
564.717163086,3033.575
564.99987793,3090.4
565.282531738,3152.825
565.565185547,3088.15
565.847839355,3096.475
566.130432129,3237.975
566.413085938,3195.35
566.695678711,3212.725
566.978149414,3341.5
567.260681152,3496.75
567.543273926,3559.125
567.825744629,3466.825
568.108154297,3493.05
568.390686035,3629.775
568.673095703,3755.075
568.955505371,3826.4
569.237854004,3838.775
569.520202637,4132.075
569.802490234,4334.45
570.084838867,4333.575
570.367126465,4154.275
570.649414062,4171.675
570.93170166,4535.575
571.213928223,4629.5
571.496154785,4371.375
571.778381348,4611.275
572.06048584,4882.475
572.342590332,4418.5
572.624755859,4022.2
572.906860352,4102.25
573.188903809,4809.275
573.470947266,5081.2
573.752990723,4814.6
574.03503418,4915.275
574.317016602,5353.75
574.598937988,5107.95
574.88092041,4986.7
575.162841797,5177.65
575.444763184,4792.4
575.726623535,4508.5
576.008483887,4563.5
576.290344238,4996.5
576.572143555,5211.9
576.853881836,5294.875
577.135681152,5183.15
577.417419434,5224.875
577.699157715,6145.8
577.980895996,6313.05
578.262573242,5638.475
578.544128418,5144.825
578.825866699,5050.925
579.107421875,4752.925
579.388977051,4918.725
579.670593262,5334.55
579.952148438,5174.05
580.233642578,5278.55
580.515197754,5399.8
580.796691895,5081.5
581.078125,5289.175
581.359619141,6868.9
581.640991211,6973.7
581.922363281,6010.0
582.203796387,6081.7
582.485107422,5676.5
582.766418457,5284.05
583.047790527,5121.025
583.329040527,4988.05
583.610290527,4860.675
583.891540527,4966.025
584.172790527,5323.35
584.453918457,5311.55
584.735107422,5384.925
585.016235352,5859.225
585.297363281,5810.2
585.578552246,5600.05
585.859619141,5532.775
586.140625,5291.425
586.421630859,5164.275
586.702697754,5202.7
586.983642578,5436.25
587.264648438,5640.375
587.545654297,5570.45
587.826477051,5500.55
588.107421875,5307.675
588.388305664,5372.0
588.669189453,5450.85
588.950012207,5283.55
589.230834961,5194.275
589.511657715,5293.35
589.792358398,5372.175
590.073120117,5373.55
590.353881836,5351.85
590.63458252,5376.225
590.915283203,5338.25
591.195922852,5312.125
591.4765625,5399.85
591.757202148,5425.925
592.037780762,5424.65
592.31829834,5390.375
592.598937988,5629.925
592.879394531,5800.875
593.159912109,5681.175
593.440429688,5645.6
593.720825195,5617.9
594.001281738,5626.95
594.281677246,5509.7
594.562072754,5545.65
594.842407227,5670.2
595.122802734,5681.825
595.403137207,5660.775
595.683410645,5633.3
595.963623047,5611.025
596.243896484,5578.225
596.524169922,5575.3
596.804382324,5589.5
597.084533691,5621.0
597.364746094,5649.725
597.644836426,5694.175
597.924987793,5663.125
598.205078125,5619.925
598.485107422,5660.125
598.765197754,5774.35
599.045227051,5847.475
599.325195312,5755.9
599.605224609,5716.275
599.885192871,5744.375
600.165100098,5789.775
600.445007324,5728.0
600.724914551,5749.15
601.004760742,5734.5
601.284667969,5797.325
601.56451416,5738.125
601.844238281,5746.9
602.124084473,5733.9
602.403808594,5763.9
602.683532715,5787.2
602.963256836,5778.075
603.242919922,5800.875
603.522583008,5867.025
603.802246094,5834.325
604.081848145,5809.875
604.36138916,5759.65
604.641052246,5817.25
604.920532227,5786.725
605.200073242,5822.15
605.479614258,5841.675
605.759094238,5877.325
606.038574219,5873.2
606.317932129,5797.775
606.597412109,5816.425
606.87677002,5815.425
607.15612793,5853.725
607.435546875,5874.975
607.714782715,5870.125
607.99407959,5813.5
608.273376465,5818.025
608.552612305,5871.475
608.831848145,5870.95
609.111083984,5840.325
609.390258789,5825.625
609.669433594,5825.875
609.948608398,5898.5
610.227722168,5854.65
610.506713867,5809.125
610.785888672,5840.275
611.064880371,5817.5
611.34387207,5839.2
611.622924805,5845.475
611.901916504,5844.1
612.180847168,5812.75
612.459777832,5785.35
612.738647461,5777.05
613.01751709,5773.375
613.296447754,5679.1
613.575317383,5674.95
613.854064941,5630.6
614.132873535,5548.475
614.411621094,5497.9
614.690368652,5450.35
614.969177246,5396.2
615.247802734,5290.5
615.526489258,5262.65
615.805175781,5170.675
616.08380127,5056.675
616.362365723,4967.475
616.640991211,4931.6
616.919555664,4863.475
617.198059082,4994.3
617.4765625,5272.575
617.755126953,5433.1
618.033569336,5460.35
618.311950684,5436.0
618.590454102,5440.125
618.868774414,5407.55
619.147155762,5433.625
619.425598145,5406.75
619.703857422,5418.35
619.982177734,5429.125
620.260498047,5398.125
620.538757324,5388.3
620.816955566,5380.55
621.095214844,5329.625
621.373413086,5363.45
621.651550293,5415.2
621.929748535,5439.375
622.207824707,5410.975
622.485900879,5423.425
622.764038086,5440.075
623.042053223,5467.05
623.320007324,5513.075
623.598083496,5502.625
623.876037598,5476.475
624.153991699,5500.15
624.432006836,5525.675
624.709838867,5540.525
624.987731934,5501.65
625.265563965,5494.525
625.543395996,5516.625
625.821228027,5576.1
626.098999023,5571.85
626.376831055,5618.675
626.654541016,5640.75
626.932250977,5680.875
627.209960938,5705.15
627.487670898,5764.25
627.765319824,5766.75
628.04296875,5763.25
628.320495605,5770.925
628.598083496,5759.575
628.875671387,5811.25
629.153259277,5837.325
629.430725098,5910.3
629.708251953,5879.95
629.985656738,5918.925
630.263122559,5954.925
630.540588379,5986.6
630.817932129,6006.1
631.095275879,6032.3
631.372680664,6079.15
631.649963379,6146.35
631.927246094,6171.8
632.204589844,6203.025
632.481811523,6291.8
632.759033203,6372.05
633.036254883,6390.925
633.313415527,6475.775
633.590576172,6526.9
633.867736816,6649.875
634.144836426,6716.15
634.421875,6745.875
634.698913574,6804.125
634.976013184,6856.5
635.252990723,6938.2
635.529968262,6963.525
635.807006836,7061.1
636.08392334,7030.35
636.360839844,6938.925
636.637756348,6833.25
636.914611816,6811.625
637.191467285,6772.575
637.468261719,6880.65
637.745056152,6847.55
638.021789551,6844.65
638.298583984,6866.425
638.575317383,6919.35
638.851989746,6925.4
639.12878418,6912.25
639.405395508,6894.425
639.682006836,6953.75
639.958618164,6966.35
640.235229492,6924.375
640.511779785,6975.925
640.788330078,6945.7
641.064880371,6966.2
641.341308594,6941.625
641.617797852,6982.35
641.894226074,6955.25
642.170654297,6983.45
642.44708252,6988.05
642.723388672,7002.6
642.999755859,6959.225
643.276123047,6968.8
643.552429199,6954.45
643.828674316,6970.725
644.104919434,6946.025
644.381164551,6935.725
644.657348633,6954.85
644.933532715,6920.9
645.209716797,6923.825
645.485839844,6918.925
645.761901855,6929.45
646.038024902,6897.75
646.314086914,6934.55
646.590087891,6926.575
646.866149902,6938.4
647.142150879,6927.725
647.41809082,6884.5
647.694030762,6895.05
647.969970703,6885.7
648.245788574,6932.675
648.521728516,6889.25
648.797546387,6889.85
649.073303223,6923.125
649.349182129,6901.95
649.624938965,6886.9
649.900634766,6884.8
650.176391602,6873.075
650.452087402,6865.475
650.727783203,6856.075
651.003479004,6882.625
651.279052734,6878.75
651.554626465,6840.625
651.83026123,6866.9
652.105773926,6873.975
652.381286621,6840.575
652.656860352,6848.075
652.932312012,6884.0
653.207763672,6867.725
653.483215332,6885.525
653.758605957,6896.55
654.033935547,6889.825
654.309326172,6877.125
654.584716797,6914.75
654.859985352,6900.45
655.135253906,6928.85
655.410583496,6964.85
655.685791016,7996.9
655.9609375,12403.275
656.236206055,12210.925
656.511291504,8103.375
656.786437988,7105.975
657.061645508,6996.85
657.336669922,6989.675
657.611694336,7056.15
657.886779785,7041.625
658.161804199,7074.275
658.436828613,7035.5
658.711791992,7032.525
658.986755371,7093.725
659.261657715,7070.3
659.536621094,7095.85
659.811401367,7073.2
660.086303711,7119.8
660.36114502,7116.5
660.635864258,7143.5
660.910644531,7175.475
661.185424805,7136.225
661.460205078,7172.9
661.734863281,7162.7
662.009521484,7174.975
662.284179688,7189.875
662.558776855,7226.375
662.833435059,7267.3
663.108032227,7272.125
663.382568359,7252.8
663.657043457,7307.375
663.93157959,7321.875
664.206054688,7292.05
664.48046875,7354.45
664.755004883,7386.75
665.02935791,7380.1
665.303710938,7409.3
665.578125,7431.925
665.852416992,7442.125
666.126708984,7435.85
666.401062012,7443.1
666.675292969,7510.5
666.949462891,7491.275
667.223754883,7494.875
667.497924805,7533.1
667.772094727,7553.525
668.046264648,7518.75
668.3203125,7589.675
668.594421387,7612.725
668.868469238,7642.325
669.14251709,7630.5
669.416503906,7669.025
669.690551758,7674.775
669.964477539,7704.0
670.23840332,7708.5
670.512329102,7702.575
670.786254883,7672.225
671.060058594,7756.35
671.333984375,7765.7
671.607788086,7802.975
671.881530762,7787.075
672.155334473,7837.6
672.429077148,7841.675
672.702758789,7825.225
672.97644043,7812.825
673.25012207,7821.725
673.523742676,7854.0
673.797302246,7852.25
674.070922852,7896.825
674.344482422,7917.625
674.618041992,7905.75
674.891601562,7929.875
675.165100098,7956.625
675.438476562,7954.3
675.711975098,7952.2
675.985412598,7944.6
676.258789062,7954.025
676.532165527,7997.7
676.805480957,7963.925
677.078796387,7996.65
677.352111816,8042.525
677.625366211,8024.2
677.898620605,8008.975
678.171875,8065.5
678.445007324,8066.75
678.718200684,8105.85
678.991394043,8081.425
679.264404297,8092.25
679.537536621,8133.375
679.81060791,8154.425
680.083679199,8169.5
680.356689453,8171.775
680.629699707,8206.25
680.902648926,8146.0
681.175598145,8226.4
681.448547363,8288.55
681.721435547,8223.475
681.99420166,8268.125
682.267150879,8225.525
682.539916992,8306.95
682.812744141,8276.325
683.085510254,8254.275
683.358215332,8293.375
683.63092041,8290.575
683.903625488,8262.575
684.176330566,8285.975
684.448913574,8278.65
684.721557617,8247.025
684.99420166,8351.125
685.266662598,8332.15
685.539245605,8337.875
685.811767578,8373.75
686.084289551,8362.2
686.356689453,8392.85
686.629150391,8466.125
686.901550293,8445.3
687.17401123,8460.225
687.446350098,8475.45
687.718688965,8474.975
687.990966797,8540.675
688.263305664,8552.725
688.535522461,8553.325
688.807739258,8560.25
689.079956055,8606.7
689.352172852,8627.625
689.624328613,8612.25
689.896484375,8664.1
690.168518066,8646.65
690.440612793,8711.425
690.71270752,8699.25
690.984741211,8734.55
691.256713867,8738.4
691.528747559,8711.65
691.800720215,8744.475
692.072631836,8781.9
692.344543457,8811.375
692.616394043,8805.025
692.888244629,8838.5
693.160095215,8863.175
693.431945801,8910.725
693.703674316,8864.825
693.975463867,8823.35
694.247131348,8892.825
694.518859863,8911.6
694.790588379,8968.925
695.062255859,8953.475
695.33380127,8967.05
695.60546875,8978.9
695.87701416,9010.6
696.148498535,8991.575
696.42010498,9036.675
696.691589355,9052.35
696.96307373,9053.1
697.234558105,9117.725
697.50592041,9116.95
697.777282715,9112.475
698.048706055,9137.65
698.320068359,9190.175
698.591308594,9154.95
698.862670898,9162.45
699.133972168,9211.1
699.405151367,9176.75
699.676391602,9209.075
699.947570801,9218.875
700.21875,9228.45
700.489868164,9263.825
700.761047363,9245.575
701.032104492,9316.95
701.303100586,9226.6
701.57421875,9325.875
701.845214844,9342.125
702.116149902,9336.975
702.387207031,9334.575
702.65814209,9357.15
702.928955078,9389.125
703.199951172,9354.15
703.47076416,9335.45
703.741577148,9345.075
704.012451172,9394.325
704.28314209,9390.925
704.553955078,9394.675
704.824707031,9441.45
705.095397949,9468.225
705.366027832,9469.05
705.63671875,9468.525
705.907348633,9411.825
706.17791748,9463.3
706.448486328,9493.5
706.719055176,9521.1
706.989562988,9561.5
707.260131836,9563.275
707.530517578,9569.9
707.800964355,9568.475
708.071411133,9537.425
708.341796875,9540.7
708.612182617,9539.825
708.882446289,9525.35
709.152893066,9572.925
709.423156738,9602.3
709.693359375,9540.25
709.963623047,9572.175
710.233825684,9613.725
710.503967285,9574.0
710.774169922,9604.225
711.044311523,9589.05
711.31439209,9598.725
711.584533691,9638.325
711.854553223,9640.4
712.124572754,9655.05
712.39465332,9576.525
712.664611816,9642.825
712.934509277,9698.45
713.204467773,9665.725
713.474365234,9698.4
713.74420166,9705.625
714.014099121,9704.85
714.283874512,9711.65
714.553710938,9732.15
714.823486328,9729.575
715.093200684,9688.775
715.362915039,9723.475
715.632629395,9707.1
715.902282715,9685.3
716.171875,9692.175
716.441589355,9717.1
716.711181641,9694.55
716.980712891,9716.675
717.250244141,9697.725
717.519775391,9738.1
717.78918457,9720.7
718.058654785,9771.725
718.328125,9772.6
718.597473145,9750.575
718.866882324,9749.0
719.136230469,9747.65
719.405578613,9785.075
719.674865723,9833.325
719.944152832,9810.975
720.213439941,9776.05
720.48260498,9812.725
720.75177002,9820.275
721.020996094,9823.825
721.290100098,9841.325
721.559204102,9773.175
721.828308105,9823.625
722.097351074,9818.45
722.366455078,9800.2
722.635437012,9776.6
722.904418945,9743.85
723.173400879,9783.575
723.442321777,9815.35
723.711181641,9751.425
723.980102539,9847.6
724.248962402,9841.7
724.51776123,9815.625
724.786560059,9862.725
725.055358887,9847.75
725.324035645,9842.5
725.592834473,9849.675
725.86151123,9824.775
726.130187988,9847.375
726.398803711,9778.15
726.667419434,9820.95
726.935974121,9828.125
727.204528809,9760.55
727.473083496,9777.05
727.741638184,9738.65
728.010070801,9698.425
728.278564453,9705.225
728.546936035,9736.375
728.815368652,9665.65
729.08380127,9584.575
729.352111816,9564.7
729.620361328,9500.775
729.88873291,9540.625
730.156982422,9576.5
730.425231934,9580.45
730.693481445,9570.875
730.961669922,9648.7
731.229797363,9664.525
731.49798584,9694.05
731.766113281,9768.475
732.034118652,9874.975
732.302246094,9894.075
732.570251465,9939.025
732.838256836,9993.35
733.106262207,10054.2
733.374145508,10095.05
733.642089844,10134.825
733.909973145,10188.125
734.177856445,10280.225
734.445678711,10378.525
734.713562012,10479.325
734.981323242,10482.85
735.249084473,10514.225
735.516845703,10677.275
735.784545898,10786.05
736.052185059,10845.15
736.319885254,10951.725
736.587524414,11003.35
736.855102539,11068.15
737.122619629,11214.775
737.390197754,11243.875
737.657714844,11326.675
737.925170898,11410.55
738.192749023,11548.475
738.460144043,11581.3
738.727539062,11662.075
738.994995117,11789.375
739.262329102,11842.425
739.529663086,11988.425
739.79699707,11999.775
740.06427002,12080.125
740.331481934,12164.1
740.598754883,12237.7
740.865905762,12230.075
741.133056641,12429.65
741.40032959,12402.05
741.667358398,12529.75
741.934448242,12584.475
742.201599121,12586.05
742.468566895,12671.1
742.735534668,12766.5
743.002563477,12811.5
743.26953125,12774.225
743.536437988,12899.525
743.803405762,13010.175
744.0703125,12937.5
744.337097168,13050.575
744.604003906,12962.025
744.870727539,13055.9
745.137512207,13087.025
745.40423584,13152.35
745.670959473,13127.25
745.93762207,13116.5
746.204284668,13111.525
746.470947266,13119.975
746.737548828,13127.6
747.004089355,13215.05
747.270751953,13172.8
747.53717041,13229.925
747.803710938,13187.825
748.070251465,13167.4
748.336608887,13158.0
748.603027344,13142.175
748.869445801,13147.85
749.135803223,13167.375
749.402099609,13138.775
749.668457031,13184.525
749.934753418,13124.175
750.20098877,13040.75
750.467224121,13117.1
750.733459473,13075.8
750.999572754,13066.85
751.26574707,12994.925
751.531860352,13021.7
751.797912598,13013.325
752.064025879,12929.625
752.330078125,12958.275
752.596069336,12916.55
752.862060547,12878.925
753.127990723,12865.175
753.393920898,12831.075
753.659912109,12765.175
753.925720215,12804.75
754.19152832,12768.075
754.457397461,12706.6
754.723144531,12717.2
754.988952637,12665.025
755.254699707,12690.9
755.520385742,12692.275
755.786071777,12702.3
756.051696777,12677.725
756.317382812,12594.925
756.582946777,12540.125
756.848510742,12597.0
757.114074707,12513.975
757.379577637,12504.3
757.645080566,12585.975
757.910583496,12550.7
758.175964355,12440.625
758.441345215,12407.725
758.706848145,12285.1
758.972106934,12326.55
759.237426758,12379.425
759.502807617,12371.65
759.768005371,12365.425
760.03326416,12311.6
760.298522949,12248.425
760.563659668,12265.7
760.828857422,12223.1
761.093994141,12243.45
761.359130859,12187.375
761.624206543,12161.125
761.889282227,12116.175
762.15423584,12117.2
762.419250488,12052.775
762.684265137,12056.725
762.949157715,12002.75
763.214050293,11965.425
763.479003906,11938.825
763.743835449,11927.575
764.008666992,11894.425
764.2734375,11860.5
764.538208008,11900.15
764.802978516,11915.075
765.067687988,11900.05
765.332397461,11863.85
765.597045898,11832.925
765.861694336,11807.075
766.126342773,11765.525
766.390930176,11720.875
766.655395508,11688.35
766.920043945,11665.025
767.184509277,11662.825
767.448974609,11649.825
767.713439941,11628.575
767.977783203,11606.725
768.2421875,11653.0
768.506591797,11561.95
768.770874023,11673.5
769.03515625,11614.75
769.299499512,11583.55
769.563720703,11575.975
769.827941895,11543.25
770.092163086,11520.925
770.356323242,11456.225
770.620483398,11503.3
770.88458252,11536.45
771.148681641,11539.8
771.412719727,11493.9
771.676757812,11505.325
771.940734863,11434.225
772.204711914,11441.5
772.468688965,11407.725
772.73260498,11427.85
772.996459961,11411.05
773.260314941,10189.825
773.524169922,1291.4
773.787963867,159.4
774.051696777,122.425
774.315551758,120.825
774.579223633,118.525
774.842895508,119.35
775.106567383,121.8
775.370239258,119.775
775.633789062,122.85
775.897399902,124.525
776.160949707,117.3
776.424499512,118.7
776.687988281,124.325
776.951477051,126.475
777.214904785,120.55
777.47833252,122.575
