191.299911499,98.625
191.603515625,102.625
191.907119751,96.1
192.210693359,103.4
192.514251709,95.6
192.817810059,102.6
193.121368408,102.975
193.42489624,106.7
193.728408813,99.4
194.031936646,95.475
194.33543396,93.025
194.638916016,109.775
194.94241333,96.0
195.245880127,97.325
195.549331665,95.2
195.852767944,99.475
196.156204224,200.475
196.459625244,191.4
196.763015747,196.4
197.066436768,201.425
197.369812012,195.0
197.673187256,197.35
197.9765625,191.25
198.279922485,194.675
198.583251953,191.9
198.886581421,197.875
199.18989563,203.775
199.493209839,198.15
199.79649353,189.625
200.09979248,198.35
200.403076172,197.15
200.706314087,195.15
201.009567261,194.675
201.312820435,198.325
201.616027832,188.775
201.919235229,181.6
202.222457886,188.525
202.525634766,195.575
202.828826904,184.75
203.132003784,182.6
203.435150146,185.825
203.738296509,185.65
204.041412354,187.0
204.344558716,191.35
204.647659302,192.725
204.950759888,190.075
205.253845215,189.55
205.556930542,188.575
205.859985352,190.2
206.163024902,188.5
206.466079712,193.75
206.769104004,200.825
207.072113037,192.5
207.375137329,194.225
207.678131104,190.775
207.981109619,191.125
208.284088135,187.525
208.587036133,197.575
208.889984131,195.5
209.19291687,196.0
209.495849609,197.65
209.798751831,198.725
210.101654053,196.95
210.404556274,199.55
210.707427979,194.5
211.010269165,204.875
211.31312561,207.075
211.615982056,204.875
211.918807983,200.35
212.221618652,200.1
212.524429321,202.375
212.827224731,209.2
213.130004883,206.225
213.432769775,204.925
213.735534668,206.7
214.038269043,213.075
214.341003418,211.0
214.643737793,216.575
214.946456909,216.05
215.249145508,218.7
215.551834106,224.575
215.854507446,219.325
216.157165527,219.775
216.45980835,224.025
216.762451172,224.15
217.065078735,227.9
217.36769104,230.675
217.670303345,230.425
217.972885132,238.775
218.275466919,243.125
218.578048706,236.425
218.880599976,252.175
219.183120728,253.25
219.485656738,266.55
219.788192749,287.225
220.090682983,309.35
220.393188477,344.0
220.695663452,390.05
220.998138428,431.025
221.300582886,491.175
221.603042603,539.925
221.905487061,616.8
222.207901001,690.7
222.510299683,780.975
222.812728882,876.275
223.115097046,973.45
223.41746521,1073.125
223.719848633,1176.325
224.022171021,1295.4
224.324508667,1401.875
224.626846313,1550.575
224.929168701,1658.65
225.231460571,1781.7
225.533737183,1908.25
225.836013794,2030.175
226.138290405,2152.375
226.440536499,2272.8
226.742767334,2360.9
227.044998169,2488.45
227.347213745,2598.675
227.649429321,2685.875
227.951629639,2786.025
228.253799438,2860.375
228.555953979,2935.525
228.858123779,3025.525
229.160263062,3103.5
229.462371826,3153.125
229.764511108,3237.75
230.066619873,3258.9
230.36869812,3328.05
230.670776367,3378.9
230.972854614,3454.6
231.274902344,3520.55
231.576950073,3613.25
231.878967285,3668.775
232.180999756,3744.125
232.48298645,3836.975
232.784988403,3896.725
233.086975098,3960.05
233.388946533,4003.925
233.69090271,4092.475
233.992858887,4168.275
234.294769287,4198.975
234.596694946,4265.325
234.898605347,4321.2
235.200500488,4380.5
235.502380371,4399.2
235.804244995,4444.375
236.106109619,4445.15
236.407958984,4480.675
236.709777832,4525.1
237.011581421,4564.275
237.313400269,4547.55
237.615203857,4567.3
237.916976929,4605.35
238.21875,4605.5
238.520507812,4625.625
238.822250366,4632.575
239.12399292,4662.275
239.425704956,4658.25
239.727401733,4643.975
240.02911377,4663.4
240.330780029,4646.0
240.632446289,4646.275
240.93409729,4673.7
241.23576355,4705.55
241.537384033,4703.175
241.839004517,4697.525
242.140594482,4721.075
242.442199707,4730.975
242.743774414,4735.15
243.045333862,4757.625
243.346923828,4741.525
243.648452759,4772.975
243.949966431,4755.525
244.251495361,4781.0
244.552993774,4785.075
244.854492188,4752.25
245.155975342,4750.875
245.457443237,4752.775
245.758880615,4729.125
246.060333252,4713.575
246.36177063,4665.45
246.66317749,4647.825
246.964569092,4651.15
247.265945435,4625.65
247.567337036,4608.7
247.86869812,4618.0
248.170059204,4612.0
248.471389771,4586.275
248.772705078,4618.975
249.074035645,4611.8
249.375335693,4613.975
249.676620483,4633.9
249.977890015,4674.05
250.279159546,4723.075
250.58039856,4739.0
250.881637573,4736.475
251.182876587,4781.0
251.484069824,4822.725
251.785263062,4873.375
252.086456299,4949.05
252.387619019,4961.775
252.688781738,4982.75
252.989929199,5048.375
253.291061401,5081.3
253.592178345,5144.975
253.893280029,5184.8
254.194366455,5212.475
254.49546814,5225.1
254.796524048,5243.85
255.097579956,5289.625
255.398620605,5307.725
255.699645996,5336.8
256.000640869,5333.85
256.30166626,5319.075
256.602661133,5361.1
256.903656006,5338.0
257.204589844,5346.55
257.505523682,5318.325
257.80645752,5347.875
258.107391357,5319.425
258.408294678,5302.4
258.709228516,5269.65
259.010070801,5254.6
259.310943604,5244.875
259.611846924,5193.975
259.912658691,5161.625
260.213500977,5140.175
260.514343262,5118.425
260.815124512,5060.325
261.115936279,5045.425
261.416717529,5012.05
261.717468262,5000.5
262.018218994,4990.575
262.318969727,4997.7
262.619689941,5017.325
262.920410156,5072.55
263.221130371,5137.5
263.521789551,5168.75
263.822479248,5194.425
264.123138428,5255.975
264.42376709,5279.575
264.72442627,5304.675
265.025054932,5319.275
265.325622559,5354.925
265.626251221,5374.925
265.926818848,5372.875
266.227386475,5336.725
266.527954102,5343.325
266.828460693,5370.45
267.12902832,5279.6
267.429534912,5283.05
267.730010986,5277.35
268.030517578,5243.575
268.330993652,5228.625
268.631439209,5221.5
268.931915283,5218.0
269.232299805,5210.275
269.532745361,5211.525
269.8331604,5179.95
270.133544922,5165.825
270.433929443,5208.175
270.734313965,5204.825
271.034637451,5225.925
271.334991455,5231.9
271.635314941,5291.75
271.935638428,5298.85
272.235931396,5379.75
272.536254883,5422.8
272.836486816,5490.65
273.136749268,5612.4
273.437011719,5709.375
273.737213135,5817.975
274.037445068,5905.925
274.337677002,6022.25
274.6378479,6112.175
274.938049316,6259.825
275.238220215,6370.05
275.538360596,6493.425
275.838500977,6601.45
276.138641357,6764.375
276.438751221,6817.0
276.738830566,6929.65
277.03894043,7006.6
277.338989258,7166.925
277.639038086,7280.25
277.939056396,7327.925
278.239105225,7424.325
278.539093018,7523.225
278.839141846,7566.6
279.139129639,7656.2
279.439086914,7756.8
279.739044189,7816.45
280.039001465,7940.525
280.338928223,7965.375
280.63885498,8020.775
280.938781738,8113.525
281.238647461,8155.4
281.538513184,8170.6
281.838409424,8215.15
282.138244629,8268.15
282.438079834,8286.075
282.737945557,8326.975
283.037719727,8345.875
283.337524414,8372.4
283.637298584,8426.325
283.937072754,8419.225
284.236816406,8415.35
284.536560059,8424.675
284.836303711,8451.2
285.136016846,8512.475
285.43572998,8522.525
285.735412598,8488.375
286.035064697,8531.175
286.334747314,8557.7
286.634368896,8551.925
286.933990479,8478.725
287.233642578,8454.675
287.533203125,8436.5
287.832824707,8366.425
288.132385254,8277.825
288.431945801,8153.225
288.731506348,8003.7
289.031036377,7822.675
289.330566406,7713.325
289.630065918,7692.425
289.92956543,7671.675
290.229034424,7783.2
290.528503418,7933.05
290.827941895,8091.65
291.127380371,8255.25
291.42678833,8396.775
291.726226807,8492.825
292.025604248,8568.25
292.324981689,8587.675
292.624359131,8601.45
292.923736572,8605.575
293.223052979,8629.95
293.522369385,8590.25
293.821685791,8575.725
294.12097168,8523.225
294.420257568,8510.95
294.719543457,8504.95
295.018768311,8466.525
295.318023682,8404.175
295.617248535,8311.35
295.916442871,8270.45
296.215667725,8177.625
296.514862061,8044.65
296.813995361,7838.375
297.11315918,7609.225
297.412322998,7468.125
297.711425781,7415.2
298.010559082,7602.725
298.309631348,7824.575
298.608734131,8020.5
298.907806396,8238.75
299.206848145,8344.375
299.505889893,8440.325
299.804901123,8554.525
300.103912354,8640.65
300.402954102,8712.0
300.701904297,8787.225
301.00088501,8831.0
301.299835205,8918.575
301.5987854,8932.45
301.897735596,9025.575
302.196624756,9083.9
302.495513916,9169.525
302.794403076,9197.15
303.093292236,9240.75
303.392120361,9295.525
303.690979004,9376.65
303.989837646,9417.275
304.288604736,9506.125
304.587402344,9463.3
304.886199951,9494.6
305.184967041,9543.5
305.483734131,9587.475
305.782501221,9632.05
306.081176758,9647.275
306.37991333,9662.625
306.678619385,9656.675
306.977294922,9714.025
307.275970459,9707.0
307.574645996,9735.35
307.873260498,9700.625
308.171875,9692.975
308.470489502,9694.275
308.769104004,9642.275
309.067687988,9619.425
309.366241455,9626.625
309.664794922,9577.95
309.963348389,9573.2
310.261871338,9565.15
310.560394287,9589.625
310.858856201,9613.5
311.157348633,9639.95
311.455810547,9628.575
311.754272461,9653.125
312.052703857,9728.425
312.351135254,9782.25
312.649536133,9716.525
312.947937012,9729.75
313.246307373,9757.375
313.544647217,9766.35
313.843017578,9684.725
314.141387939,9683.725
314.439697266,9724.6
314.738006592,9606.925
315.036315918,9543.975
315.334564209,9458.85
315.6328125,9394.2
315.931091309,9323.0
316.229309082,9202.075
316.527526855,9049.825
316.825744629,9026.175
317.123901367,8926.175
317.422088623,8864.45
317.720245361,8859.0
318.0184021,8857.2
318.316497803,8905.525
318.614654541,8967.525
318.912750244,9043.425
319.21081543,9018.75
319.50894165,9086.375
319.806945801,9069.725
320.104980469,9061.825
320.403045654,9036.475
320.701049805,9013.45
320.999023438,8975.55
321.297027588,8937.4
321.595001221,8916.85
321.892913818,8890.5
322.190887451,8815.075
322.488830566,8774.325
322.786712646,8711.875
323.084625244,8623.475
323.382507324,8598.825
323.680358887,8533.1
323.978210449,8419.225
324.276062012,8362.625
324.573852539,8316.175
324.871643066,8236.225
325.169464111,8190.125
325.467224121,8115.825
325.764984131,8034.225
326.062744141,7981.05
326.360473633,7859.95
326.658203125,7812.625
326.955871582,7739.85
327.253570557,7668.175
327.551239014,7612.775
327.848907471,7552.275
328.146514893,7447.7
328.444152832,7406.85
328.741790771,7329.675
329.039367676,7278.975
329.336914062,7231.725
329.634521484,7131.4
329.932067871,7090.95
330.229553223,6986.725
330.527160645,6943.45
330.824615479,6888.15
331.12210083,6811.375
331.419586182,6687.6
331.717041016,6631.15
332.014465332,6544.15
332.311920166,6509.05
332.609313965,6459.725
332.906707764,6426.525
333.204101562,6427.45
333.501495361,6435.0
333.798828125,6500.975
334.096160889,6528.6
334.39352417,6580.525
334.690795898,6618.375
334.988098145,6649.875
335.285400391,6752.2
335.582641602,6726.475
335.879882812,6774.725
336.177124023,6790.225
336.474334717,6860.325
336.77154541,6851.2
337.068725586,6891.05
337.365905762,6895.05
337.66305542,6920.0
337.960205078,6943.35
338.257324219,6938.85
338.554443359,6950.925
338.8515625,6958.6
339.148590088,6979.575
339.445648193,6965.225
339.742736816,6920.8
340.039764404,6935.125
340.336761475,6882.35
340.63381958,6848.35
340.930755615,6772.825
341.227722168,6712.25
341.524688721,6625.625
341.821624756,6594.825
342.118560791,6593.35
342.415496826,6681.85
342.712402344,6840.775
343.009246826,6998.0
343.306121826,7107.425
343.602966309,7182.775
343.899810791,7266.075
344.196624756,7338.85
344.493438721,7364.05
344.79019165,7392.7
345.086975098,7487.375
345.383758545,7534.3
345.680480957,7470.075
345.977203369,7491.05
346.273956299,7551.0
346.570617676,7546.55
346.86730957,7551.025
347.163970947,7522.75
347.460601807,7603.15
347.757232666,7574.35
348.053894043,7562.275
348.350463867,7472.25
348.647064209,7485.7
348.943634033,7454.475
349.24017334,7466.65
349.536712646,7397.25
349.833251953,7409.575
350.129760742,7377.45
350.426208496,7396.125
350.722747803,7358.375
351.019195557,7336.975
351.315612793,7288.075
351.612060547,7249.225
351.908508301,7203.15
352.204864502,7117.375
352.501281738,7098.675
352.797637939,7020.8
353.093963623,6913.375
353.390319824,6855.175
353.686645508,6770.85
353.982940674,6713.1
354.27923584,6656.625
354.575531006,6583.625
354.871765137,6581.45
355.167999268,6544.4
355.464233398,6556.25
355.760437012,6560.25
356.056640625,6576.1
356.352813721,6572.4
356.648956299,6574.85
356.945129395,6577.975
357.241271973,6559.65
357.537384033,6594.675
357.833496094,6556.3
358.129577637,6501.25
358.425628662,6480.575
358.721679688,6478.85
359.017730713,6455.6
359.313720703,6387.65
359.609710693,6341.55
359.905761719,6273.5
360.201721191,6243.75
360.497650146,6179.075
360.793609619,6153.25
361.089538574,6061.525
361.385437012,5991.05
361.681365967,5933.025
361.977233887,5903.875
362.273071289,5832.95
362.568908691,5725.6
362.864746094,5580.25
363.160552979,5458.9
363.456359863,5255.675
363.752166748,5135.65
364.047912598,5033.275
364.343658447,5000.825
364.639434814,5006.6
364.935119629,5053.15
365.230834961,5112.6
365.526550293,5169.7
365.822174072,5160.975
366.117858887,5202.5
366.413482666,5211.85
366.709075928,5231.35
367.004730225,5148.325
367.300292969,5123.65
367.595855713,5186.575
367.891448975,5058.475
368.186981201,4970.275
368.482513428,4927.3
368.778015137,4891.1
369.073547363,4848.975
369.36895752,4877.775
369.664428711,4766.95
369.95993042,4643.675
370.255310059,4598.15
370.550720215,4558.175
370.846160889,4513.4
371.14151001,4485.8
371.436859131,4458.875
371.73223877,4449.025
372.027557373,4409.9
372.322875977,4326.625
372.618164062,4296.2
372.913482666,4253.8
373.208709717,4236.575
373.503967285,4178.925
373.799194336,4130.6
374.094421387,4126.925
374.389648438,4099.85
374.684844971,4085.875
374.979980469,4138.925
375.275146484,4148.525
375.570281982,4171.65
375.865386963,4151.725
376.160522461,4106.25
376.455596924,4110.15
376.750640869,4216.025
377.045715332,4221.975
377.340759277,4235.975
377.635772705,4298.6
377.93081665,4334.55
378.225769043,4415.675
378.520751953,4479.65
378.815734863,4445.15
379.110656738,4596.925
379.405548096,4781.6
379.700500488,4604.95
379.995391846,4382.175
380.290252686,4425.85
380.585083008,4545.6
380.879974365,4596.425
381.17477417,4489.475
381.469543457,4416.6
381.764404297,4407.175
382.059143066,4447.825
382.353912354,4538.15
382.648651123,4627.375
382.943389893,4591.05
383.238067627,4426.25
383.532775879,4411.275
383.827484131,4338.625
384.12210083,4355.625
384.416778564,4306.525
384.711425781,4205.65
385.006011963,4239.3
385.300628662,4217.35
385.595184326,4311.55
385.88973999,4391.8
386.184295654,4487.55
386.478820801,4573.3
386.77331543,4670.25
387.067840576,4791.15
387.362335205,4879.2
387.656768799,4958.775
387.951202393,4967.8
388.245635986,5037.7
388.540039062,5131.7
388.834472656,5195.45
389.128875732,5098.9
389.423187256,4838.925
389.717559814,4794.75
390.011871338,4942.8
390.306182861,4938.275
390.600463867,4936.075
390.894775391,5009.35
391.189025879,5058.925
391.48324585,5060.825
391.777526855,5094.725
392.071685791,5316.15
392.365875244,5442.95
392.660064697,5472.65
392.95425415,5836.55
393.248382568,5797.8
393.542510986,5334.9
393.836608887,5138.75
394.130706787,5134.525
394.424804688,5079.9
394.71887207,5215.55
395.012878418,5166.925
395.306915283,5069.5
395.600921631,4990.6
395.894927979,4955.925
396.188903809,5011.45
396.482879639,5010.95
396.776794434,5227.95
397.070739746,5185.175
397.364654541,5232.55
397.658538818,5619.15
397.952423096,5647.3
398.246307373,5597.075
398.540100098,6149.975
398.833953857,6011.475
399.127746582,5499.225
399.421508789,5530.3
399.715301514,5471.85
400.009063721,5372.1
400.30279541,5213.7
400.596496582,5110.825
400.890258789,5293.25
401.183929443,5402.25
401.47756958,5283.9
401.771240234,5038.8
402.064880371,5057.0
402.35848999,5089.25
402.652130127,4994.3
402.945678711,5077.6
403.239257812,5022.375
403.532775879,4962.225
403.82635498,5013.05
404.119842529,4913.25
404.413360596,4912.125
404.706848145,4973.775
405.000274658,4892.675
405.293762207,4973.525
405.587188721,5021.7
405.880584717,4857.225
406.17401123,4677.675
406.467407227,4459.475
406.760742188,4480.6
407.054107666,4520.975
407.347442627,4417.4
407.640716553,4426.25
407.934051514,4481.775
408.227325439,4548.75
408.520568848,4789.8
408.813842773,4883.2
409.107086182,4664.45
409.400238037,4619.1
409.693450928,4546.125
409.986633301,4668.875
410.279754639,4574.75
410.572875977,4263.425
410.86605835,4208.7
411.159118652,4222.525
411.452209473,4233.325
411.745330811,4077.05
412.038360596,4003.575
412.331390381,4039.6
412.624420166,4099.95
412.917388916,4005.175
413.210388184,3824.075
413.503387451,3784.3
413.796295166,3668.925
414.089233398,3512.4
414.382141113,3411.75
414.675048828,3398.2
414.967926025,3434.1
415.260803223,3378.275
415.55368042,3404.55
415.846466064,3368.45
416.139282227,3451.225
416.432098389,3578.125
416.724853516,3569.95
417.017608643,3505.05
417.31036377,3528.225
417.603088379,3647.425
417.895782471,3619.25
418.188476562,3601.2
418.481140137,3662.85
418.773803711,3723.675
419.066436768,3693.3
419.359039307,3770.9
419.651641846,3777.675
419.944244385,3759.6
420.236816406,3752.25
420.529327393,3946.825
420.821899414,4039.4
421.114379883,3962.475
421.406860352,4235.4
421.699371338,4468.725
421.991821289,4430.2
422.284240723,4207.4
422.576721191,4038.25
422.869110107,3932.075
423.161468506,3883.6
423.453857422,3932.875
423.74621582,3790.9
424.038543701,3646.825
424.330871582,3621.25
424.623168945,3566.575
424.915435791,3691.625
425.207702637,3655.125
425.499969482,3618.35
425.792205811,3548.5
426.084411621,3279.5
426.376617432,3362.15
426.668762207,3440.9
426.9609375,3316.5
427.253082275,3440.4
427.545196533,3877.775
427.837310791,3563.075
428.129425049,3284.525
428.421447754,3505.575
428.713531494,3488.1
429.005554199,3500.175
429.297576904,3511.075
429.589599609,3942.0
429.881561279,4278.975
430.173522949,4062.475
430.465484619,4011.525
430.757415771,4091.825
431.049316406,3836.025
431.341186523,3602.75
431.633117676,3506.425
431.924957275,3185.575
432.21673584,3068.375
432.508636475,3217.875
432.800415039,3246.55
433.092163086,3136.45
433.383972168,3097.45
433.675689697,3848.9
433.967437744,4347.125
434.259155273,3354.975
434.550872803,3040.875
434.842498779,3089.05
435.134185791,3222.075
435.425842285,3259.45
435.717437744,3142.35
436.009063721,2956.4
436.30065918,3111.55
436.592224121,3482.0
436.883758545,3271.925
437.175323486,3005.15
437.466827393,2971.05
437.758331299,2972.125
438.049804688,3002.1
438.341247559,3078.5
438.63269043,3154.475
438.924163818,3144.95
439.215515137,3108.125
439.50692749,2999.925
439.798309326,3015.225
440.089660645,3015.65
440.380981445,2924.925
440.672332764,2906.325
440.963623047,3193.675
441.254882812,3678.125
441.546173096,3863.95
441.837402344,3606.075
442.128631592,3404.1
442.41986084,3373.725
442.711029053,3247.35
443.002197266,3320.6
443.293365479,3509.775
443.584503174,3637.4
443.875610352,3616.55
444.166717529,3338.2
444.457794189,3410.4
444.748840332,3389.2
445.039916992,3333.75
445.330932617,3445.55
445.621948242,3268.825
445.912963867,3073.8
446.203918457,3315.125
446.494812012,3549.475
446.785827637,3334.3
447.076721191,3150.6
447.367584229,3123.875
447.658447266,3100.2
447.949371338,3173.925
448.24017334,3024.0
448.530975342,2951.225
448.821838379,3135.725
449.112579346,3220.225
449.40335083,3146.15
449.694152832,3170.9
449.984863281,3181.55
450.27557373,3100.85
450.56628418,3176.975
450.856933594,3193.25
451.147583008,3027.55
451.438262939,2914.8
451.728881836,3119.0
452.019470215,3232.875
452.310089111,3012.3
452.600646973,3022.225
452.891174316,3094.35
453.181732178,2914.25
453.472229004,2775.375
453.762695312,2892.3
454.053222656,2922.65
454.343658447,2780.525
454.634063721,2709.225
454.924530029,2909.475
455.214935303,3060.95
455.505279541,3115.325
455.795715332,2974.525
456.086029053,2770.725
456.376312256,2755.275
456.666687012,2803.45
456.956939697,2897.725
457.247192383,2901.8
457.537445068,2984.0
457.827728271,3162.025
458.117919922,3103.7
458.408081055,3019.375
458.698303223,3190.95
458.988433838,3135.675
459.278564453,2943.125
459.568725586,3244.65
459.858825684,3368.9
460.148864746,3035.2
460.438995361,2993.8
460.729034424,3070.2
461.019042969,3062.075
461.309082031,3270.425
461.599060059,3139.675
461.889007568,2667.1
462.179016113,2472.9
462.468933105,2722.875
462.75881958,2844.05
463.048736572,2582.825
463.338592529,2855.65
463.628448486,3224.275
463.918365479,2916.5
464.2081604,3087.65
464.497924805,3051.05
464.787780762,3183.425
465.077514648,3508.075
465.367218018,3098.175
465.657012939,3308.0
465.946685791,3729.25
466.236358643,3326.425
466.526092529,2771.925
466.815734863,2761.35
467.105316162,2696.9
467.394927979,2725.575
467.684570312,2580.375
467.974121094,2662.275
468.263671875,2783.325
468.553222656,2564.875
468.842773438,2444.0
469.132232666,2339.4
469.42175293,2360.575
469.711212158,2338.175
470.000640869,2204.475
470.290100098,2253.975
470.579498291,2289.5
470.868835449,2303.275
471.158294678,2263.525
471.447601318,2226.875
471.736907959,2301.125
472.026275635,2380.175
472.315551758,2370.725
472.604797363,2363.1
472.894104004,2491.125
473.183319092,2606.85
473.47253418,2602.875
473.761779785,2602.15
474.05090332,2528.725
474.340087891,2481.475
474.629241943,2406.05
474.918365479,2584.15
475.207427979,2870.775
475.496551514,2900.075
475.785614014,2625.15
476.074645996,2412.925
476.363708496,2504.075
476.652679443,2658.55
476.941650391,2465.825
477.230682373,2300.95
477.519622803,2294.6
477.808502197,2454.125
478.097412109,2757.7
478.386352539,2704.8
478.675201416,2409.7
478.964050293,2301.675
479.25289917,2510.0
479.541717529,2560.925
479.830474854,2398.825
480.11932373,2762.125
480.408050537,2962.375
480.696777344,2551.9
480.985534668,2405.1
481.274200439,2505.725
481.562866211,2769.9
481.851593018,2803.275
482.140197754,2734.35
482.428833008,2558.75
482.717468262,2338.1
483.006011963,2380.25
483.294586182,2505.95
483.5831604,2556.375
483.871673584,2394.85
484.16015625,2561.4
484.448699951,2812.55
484.7371521,2857.4
485.02557373,2860.125
485.314025879,2566.025
485.602416992,3989.85
485.890777588,14106.425
486.179199219,12645.5
486.467559814,3403.575
486.755859375,2462.15
487.044219971,2877.225
487.332519531,3066.825
487.620758057,2640.45
487.908966064,2372.85
488.197265625,2156.525
488.485473633,2040.075
488.773651123,2183.95
489.061859131,2171.125
489.350006104,2119.8
489.638122559,2049.1
489.926300049,2071.625
490.214355469,2018.15
490.502441406,1959.5
490.790527344,1889.925
491.078552246,2097.55
491.366546631,2105.125
491.654602051,1846.125
491.942565918,1932.85
492.230499268,1981.05
492.518493652,1935.275
492.806396484,1973.225
493.094268799,1878.725
493.382202148,1924.875
493.670074463,2046.05
493.957885742,1889.8
494.245727539,1878.075
494.533508301,2056.7
494.821289062,1938.675
495.109100342,1778.05
495.396850586,1732.95
495.684539795,1674.825
495.972290039,1904.3
496.25994873,2263.25
496.547607422,2288.0
496.835296631,2086.05
497.122894287,1737.25
497.410522461,1658.0
497.6980896,1663.175
497.985687256,1627.4
498.273223877,1733.95
498.560760498,1805.825
498.848266602,1832.6
499.135772705,1815.975
499.423217773,1849.525
499.710693359,1975.45
499.998138428,1891.275
500.285522461,1716.975
500.572937012,1628.0
500.860290527,1699.45
501.147644043,1807.525
501.434997559,2058.725
501.722290039,1901.6
502.00958252,1650.95
502.296875,1937.9
502.584106445,1927.6
502.871337891,1723.025
503.158599854,1815.85
503.445770264,1890.05
503.732910156,1879.6
504.020141602,1679.375
504.307220459,1655.25
504.594329834,1690.1
504.881469727,1621.4
505.168518066,1694.9
505.455535889,1777.525
505.742614746,1648.1
506.029632568,1578.15
506.316589355,1770.15
506.603637695,1874.2
506.890563965,1655.7
507.177459717,1477.425
507.464385986,1383.5
507.751312256,1624.525
508.038146973,1721.2
508.325012207,1562.175
508.611877441,1637.725
508.898681641,1653.9
509.185424805,1472.825
509.472259521,1425.45
509.759002686,1523.7
510.045715332,1547.975
510.332458496,1492.325
510.619140625,1550.9
510.905761719,1470.15
511.192504883,1449.475
511.479095459,1502.4
511.765686035,1444.925
512.052307129,1355.6
512.338928223,1296.6
512.625427246,1359.825
512.91204834,1429.05
513.198486328,1405.35
513.484985352,1370.825
513.77142334,1283.6
514.057922363,1351.175
514.344299316,1334.325
514.63079834,1293.675
514.917175293,1278.3
515.203552246,1176.25
515.489868164,1140.05
515.776245117,1286.425
516.0625,1327.15
516.348815918,1228.4
516.635070801,1262.575
516.921325684,1326.1
517.207580566,1258.325
517.493774414,1159.6
517.779968262,1157.0
518.066101074,1205.725
518.352294922,1156.175
518.638366699,1159.6
518.924499512,1251.9
519.210632324,1325.2
519.496643066,1288.2
519.782714844,1178.45
520.068786621,1150.7
520.354736328,1106.775
520.640686035,1050.0
520.926757812,1111.675
521.212646484,1192.225
521.498535156,1183.725
521.784484863,1139.475
522.0703125,1065.425
522.356262207,1083.05
522.642089844,1170.55
522.927856445,1157.4
523.213684082,1152.8
523.499511719,1144.475
523.78527832,1185.875
524.070983887,1236.45
524.356750488,1221.95
524.64239502,1177.125
524.928039551,1168.85
525.213806152,1179.325
525.499389648,1165.025
525.784973145,1195.35
526.070617676,1255.3
526.356140137,1209.1
526.641723633,1220.625
526.927307129,1282.15
527.212768555,1290.675
527.498291016,1258.45
527.783752441,1265.025
528.069213867,1248.2
528.354675293,1266.9
528.640014648,1432.375
528.925476074,1518.625
529.21081543,1437.125
529.496154785,1415.7
529.781555176,1378.575
530.066833496,1394.675
530.352050781,1411.25
530.637390137,1387.025
530.922607422,1394.1
531.207824707,1394.5
531.493041992,1379.775
531.778198242,1451.3
532.063354492,1418.35
532.348571777,1365.475
532.633666992,1387.975
532.918762207,1465.625
533.203857422,1561.1
533.488891602,1578.525
533.773925781,1525.025
534.059020996,1492.125
534.343933105,1518.475
534.628967285,1496.35
534.91394043,1520.15
535.198852539,1525.075
535.483703613,1511.325
535.768676758,1446.625
536.053527832,1443.2
536.338317871,1404.9
536.62322998,1344.8
536.90802002,1313.3
537.192810059,1332.575
537.477539062,1418.6
537.762329102,1469.15
538.047058105,1512.4
538.331726074,1538.6
538.616455078,1515.35
538.901123047,1496.925
539.18572998,1534.875
539.470397949,1557.975
539.755004883,1539.5
540.039550781,1498.8
540.32409668,1458.975
540.608703613,1491.3
540.893188477,1608.075
541.17767334,1604.525
541.462158203,1629.4
541.746643066,1563.225
542.031066895,1596.025
542.315429688,1645.475
542.59979248,1643.725
542.884216309,1627.875
543.168579102,1619.45
543.452941895,1628.625
543.737243652,1688.2
544.021484375,1731.95
544.305725098,1721.675
544.590026855,1696.2
544.874267578,1714.25
545.158447266,1777.825
545.442626953,1684.725
545.726806641,1583.725
546.010925293,1608.125
546.29510498,1660.375
546.579162598,1643.85
546.863220215,1683.05
547.147277832,1753.775
547.431335449,1843.15
547.715332031,1905.65
547.999328613,2011.95
548.283325195,2029.1
548.567260742,1876.675
548.851135254,1838.8
549.135070801,1812.15
549.419006348,1710.225
549.702819824,1825.2
549.986755371,1890.125
550.270507812,1857.7
550.554321289,1917.75
550.83807373,1914.05
551.121826172,1869.0
551.405517578,1884.9
551.689331055,1993.175
551.973022461,2242.575
552.256652832,2320.75
552.540344238,2211.75
552.823974609,2177.075
553.107543945,2177.075
553.391174316,2230.9
553.674743652,2281.3
553.958251953,2297.95
554.241821289,2291.475
554.525268555,2242.05
554.808776855,2240.725
555.092285156,2444.45
555.375671387,2530.6
555.659057617,2518.55
555.942504883,2559.95
556.225891113,2586.825
556.509216309,2550.475
556.792541504,2448.4
557.075866699,2526.775
557.359130859,2571.9
557.64239502,2549.0
557.92565918,2646.675
558.208862305,2624.875
558.49206543,2551.95
558.77532959,2578.875
559.058410645,2621.3
559.341552734,2610.125
559.624694824,2669.35
559.907775879,2732.975
560.190856934,2877.725
560.473937988,2849.325
560.756896973,2898.1
561.039978027,2945.125
561.322937012,2890.575
561.605895996,2889.0
561.88885498,2859.825
562.171813965,2837.6
562.454650879,2842.325
562.737548828,2888.275
563.020446777,2955.4
563.303283691,2975.4
563.58605957,2998.725
563.868896484,3017.25
564.151672363,3085.05
564.434387207,3096.725
564.717163086,3063.8
564.99987793,3120.2
565.282531738,3179.575
565.565185547,3113.225
565.847839355,3115.875
566.130432129,3252.725
566.413085938,3232.65
566.695678711,3245.725
566.978149414,3358.875
567.260681152,3508.85
567.543273926,3590.25
567.825744629,3479.25
568.108154297,3516.2
568.390686035,3653.025
568.673095703,3773.775
568.955505371,3814.4
569.237854004,3860.1
569.520202637,4141.275
569.802490234,4377.95
570.084838867,4327.85
570.367126465,4164.4
570.649414062,4186.35
570.93170166,4546.6
571.213928223,4613.4
571.496154785,4349.85
571.778381348,4585.775
572.06048584,4862.825
572.342590332,4391.15
572.624755859,4006.125
572.906860352,4090.75
573.188903809,4805.9
573.470947266,5060.3
573.752990723,4810.775
574.03503418,4897.025
574.317016602,5324.4
574.598937988,5094.575
574.88092041,4980.575
575.162841797,5161.8
575.444763184,4773.225
575.726623535,4515.8
576.008483887,4552.65
576.290344238,4968.0
576.572143555,5163.575
576.853881836,5233.6
577.135681152,5137.35
577.417419434,5189.9
577.699157715,6095.85
577.980895996,6259.375
578.262573242,5582.175
578.544128418,5101.55
578.825866699,5009.0
579.107421875,4695.125
579.388977051,4870.4
579.670593262,5286.525
579.952148438,5146.725
580.233642578,5257.525
580.515197754,5348.5
580.796691895,5045.25
581.078125,5211.45
581.359619141,6792.5
581.640991211,6889.8
581.922363281,5926.475
582.203796387,6016.05
582.485107422,5636.725
582.766418457,5219.475
583.047790527,5044.5
583.329040527,4937.15
583.610290527,4787.225
583.891540527,4903.55
584.172790527,5224.225
584.453918457,5258.875
584.735107422,5311.35
585.016235352,5791.775
585.297363281,5743.15
585.578552246,5526.95
585.859619141,5466.025
586.140625,5244.65
586.421630859,5086.575
586.702697754,5126.625
586.983642578,5374.925
587.264648438,5551.625
587.545654297,5463.65
587.826477051,5424.55
588.107421875,5214.625
588.388305664,5244.25
588.669189453,5353.375
588.950012207,5184.35
589.230834961,5102.55
589.511657715,5172.475
589.792358398,5276.3
590.073120117,5299.55
590.353881836,5252.375
590.63458252,5286.7
590.915283203,5233.8
591.195922852,5228.35
591.4765625,5274.425
591.757202148,5295.5
592.037780762,5274.1
592.31829834,5291.85
592.598937988,5516.725
592.879394531,5701.2
593.159912109,5604.325
593.440429688,5532.5
593.720825195,5490.625
594.001281738,5474.925
594.281677246,5396.55
594.562072754,5413.7
594.842407227,5509.225
595.122802734,5557.075
595.403137207,5513.0
595.683410645,5517.6
595.963623047,5496.75
596.243896484,5434.25
596.524169922,5425.85
596.804382324,5451.35
597.084533691,5497.05
597.364746094,5525.325
597.644836426,5549.375
597.924987793,5523.65
598.205078125,5494.5
598.485107422,5518.525
598.765197754,5625.625
599.045227051,5694.35
599.325195312,5600.775
599.605224609,5538.675
599.885192871,5601.075
600.165100098,5618.15
600.445007324,5570.2
600.724914551,5577.575
601.004760742,5592.85
601.284667969,5610.925
601.56451416,5590.9
601.844238281,5582.825
602.124084473,5594.375
602.403808594,5583.55
602.683532715,5632.1
602.963256836,5602.65
603.242919922,5664.8
603.522583008,5693.775
603.802246094,5667.625
604.081848145,5621.2
604.36138916,5603.675
604.641052246,5646.1
604.920532227,5609.025
605.200073242,5639.25
605.479614258,5673.7
605.759094238,5709.5
606.038574219,5692.025
606.317932129,5643.025
606.597412109,5634.375
606.87677002,5622.15
607.15612793,5692.65
607.435546875,5681.125
607.714782715,5684.175
607.99407959,5629.525
608.273376465,5632.4
608.552612305,5660.6
608.831848145,5680.025
609.111083984,5657.875
609.390258789,5626.45
609.669433594,5641.875
609.948608398,5721.675
610.227722168,5694.15
610.506713867,5632.1
610.785888672,5638.775
611.064880371,5628.025
611.34387207,5648.475
611.622924805,5663.25
611.901916504,5657.475
612.180847168,5600.875
612.459777832,5600.525
612.738647461,5602.825
613.01751709,5554.525
613.296447754,5514.075
613.575317383,5479.05
613.854064941,5454.425
614.132873535,5327.275
614.411621094,5293.975
614.690368652,5272.325
614.969177246,5196.9
615.247802734,5111.325
615.526489258,5091.8
615.805175781,4989.1
616.08380127,4851.35
616.362365723,4799.8
616.640991211,4732.375
616.919555664,4679.25
617.198059082,4804.825
617.4765625,5075.925
617.755126953,5237.675
618.033569336,5249.55
618.311950684,5245.9
618.590454102,5236.175
618.868774414,5214.75
619.147155762,5241.7
619.425598145,5194.7
619.703857422,5216.325
619.982177734,5211.9
620.260498047,5216.9
620.538757324,5180.575
620.816955566,5173.75
621.095214844,5136.175
621.373413086,5161.2
621.651550293,5211.425
621.929748535,5242.4
622.207824707,5218.575
622.485900879,5231.9
622.764038086,5234.125
623.042053223,5267.45
623.320007324,5287.525
623.598083496,5273.9
623.876037598,5262.125
624.153991699,5291.375
624.432006836,5318.875
624.709838867,5309.3
624.987731934,5305.5
625.265563965,5308.75
625.543395996,5320.925
625.821228027,5357.425
626.098999023,5361.1
626.376831055,5411.8
626.654541016,5412.5
626.932250977,5464.5
627.209960938,5514.275
627.487670898,5530.625
627.765319824,5528.275
628.04296875,5525.975
628.320495605,5544.925
628.598083496,5544.725
628.875671387,5589.425
629.153259277,5631.325
629.430725098,5670.825
629.708251953,5676.425
629.985656738,5669.475
630.263122559,5721.6
630.540588379,5759.525
630.817932129,5758.575
631.095275879,5817.925
631.372680664,5844.775
631.649963379,5890.775
631.927246094,5949.775
632.204589844,5975.75
632.481811523,6026.325
632.759033203,6117.175
633.036254883,6112.5
633.313415527,6207.825
633.590576172,6245.175
633.867736816,6336.225
634.144836426,6418.45
634.421875,6460.75
634.698913574,6524.7
634.976013184,6592.9
635.252990723,6643.55
635.529968262,6683.2
635.807006836,6786.65
636.08392334,6754.2
636.360839844,6661.475
636.637756348,6544.35
636.914611816,6535.45
637.191467285,6528.725
637.468261719,6609.65
637.745056152,6550.8
638.021789551,6598.5
638.298583984,6579.175
638.575317383,6632.05
638.851989746,6641.65
639.12878418,6629.85
639.405395508,6624.85
639.682006836,6666.55
639.958618164,6651.475
640.235229492,6639.025
640.511779785,6703.775
640.788330078,6663.475
641.064880371,6685.0
641.341308594,6655.55
641.617797852,6654.0
641.894226074,6670.65
642.170654297,6696.6
642.44708252,6674.325
642.723388672,6691.4
642.999755859,6683.85
643.276123047,6672.1
643.552429199,6662.65
643.828674316,6650.0
644.104919434,6633.425
644.381164551,6658.325
644.657348633,6672.75
644.933532715,6622.4
645.209716797,6631.675
645.485839844,6645.2
645.761901855,6631.55
646.038024902,6603.325
646.314086914,6671.375
646.590087891,6661.325
646.866149902,6650.6
647.142150879,6620.575
647.41809082,6579.675
647.694030762,6592.775
647.969970703,6583.25
648.245788574,6621.3
648.521728516,6602.375
648.797546387,6587.0
649.073303223,6630.6
649.349182129,6602.725
649.624938965,6616.2
649.900634766,6608.2
650.176391602,6588.725
650.452087402,6607.225
650.727783203,6578.5
651.003479004,6582.175
651.279052734,6580.9
651.554626465,6556.2
651.83026123,6575.3
652.105773926,6584.4
652.381286621,6557.375
652.656860352,6560.975
652.932312012,6578.025
653.207763672,6571.25
653.483215332,6598.2
653.758605957,6593.475
654.033935547,6591.575
654.309326172,6600.325
654.584716797,6628.9
654.859985352,6605.7
655.135253906,6655.25
655.410583496,6655.15
655.685791016,7665.55
655.9609375,11930.4
656.236206055,11667.4
656.511291504,7731.725
656.786437988,6789.05
657.061645508,6703.8
657.336669922,6691.375
657.611694336,6728.0
657.886779785,6733.375
658.161804199,6778.6
658.436828613,6720.225
658.711791992,6759.725
658.986755371,6772.625
659.261657715,6810.825
659.536621094,6805.275
659.811401367,6803.05
660.086303711,6817.025
660.36114502,6804.675
660.635864258,6803.175
660.910644531,6860.625
661.185424805,6876.925
661.460205078,6867.3
661.734863281,6867.65
662.009521484,6866.8
662.284179688,6893.5
662.558776855,6902.325
662.833435059,6967.75
663.108032227,6950.6
663.382568359,6923.75
663.657043457,6993.55
663.93157959,7009.325
664.206054688,6995.775
664.48046875,7043.625
664.755004883,7061.5
665.02935791,7075.125
665.303710938,7103.5
665.578125,7121.45
665.852416992,7124.925
666.126708984,7115.2
666.401062012,7119.05
666.675292969,7179.325
666.949462891,7200.3
667.223754883,7160.65
667.497924805,7219.775
667.772094727,7230.975
668.046264648,7213.925
668.3203125,7258.2
668.594421387,7297.625
668.868469238,7308.0
669.14251709,7303.45
669.416503906,7349.275
669.690551758,7341.8
669.964477539,7343.025
670.23840332,7393.775
670.512329102,7374.125
670.786254883,7330.175
671.060058594,7414.55
671.333984375,7427.925
671.607788086,7459.35
671.881530762,7460.85
672.155334473,7505.3
672.429077148,7486.1
672.702758789,7534.05
672.97644043,7490.25
673.25012207,7528.75
673.523742676,7507.1
673.797302246,7520.925
674.070922852,7584.175
674.344482422,7592.175
674.618041992,7568.35
674.891601562,7596.925
675.165100098,7607.55
675.438476562,7604.9
675.711975098,7610.35
675.985412598,7605.525
676.258789062,7603.8
676.532165527,7663.875
676.805480957,7641.45
677.078796387,7688.125
677.352111816,7682.95
677.625366211,7711.825
677.898620605,7676.1
678.171875,7733.425
678.445007324,7722.45
678.718200684,7789.1
678.991394043,7751.45
679.264404297,7731.2
679.537536621,7804.4
679.81060791,7827.825
680.083679199,7797.325
680.356689453,7816.375
680.629699707,7841.975
680.902648926,7794.5
681.175598145,7850.225
681.448547363,7906.05
681.721435547,7851.875
681.99420166,7869.675
682.267150879,7843.5
682.539916992,7938.275
682.812744141,7897.325
683.085510254,7883.175
683.358215332,7905.425
683.63092041,7894.875
683.903625488,7914.225
684.176330566,7921.575
684.448913574,7896.725
684.721557617,7888.05
684.99420166,7968.275
685.266662598,7947.15
685.539245605,7965.55
685.811767578,7997.275
686.084289551,7995.925
686.356689453,8035.825
686.629150391,8062.8
686.901550293,8097.225
687.17401123,8103.45
687.446350098,8132.575
687.718688965,8122.925
687.990966797,8190.55
688.263305664,8186.8
688.535522461,8181.85
688.807739258,8160.3
689.079956055,8241.775
689.352172852,8242.6
689.624328613,8242.15
689.896484375,8268.2
690.168518066,8286.85
690.440612793,8303.25
690.71270752,8340.725
690.984741211,8297.2
691.256713867,8340.475
691.528747559,8346.6
691.800720215,8368.25
692.072631836,8388.725
692.344543457,8418.425
692.616394043,8435.625
692.888244629,8453.1
693.160095215,8493.925
693.431945801,8497.525
693.703674316,8468.7
693.975463867,8465.1
694.247131348,8512.325
694.518859863,8508.125
694.790588379,8541.85
695.062255859,8544.075
695.33380127,8525.8
695.60546875,8519.85
695.87701416,8574.175
696.148498535,8586.75
696.42010498,8635.55
696.691589355,8632.975
696.96307373,8655.85
697.234558105,8709.275
697.50592041,8693.075
697.777282715,8720.3
698.048706055,8710.95
698.320068359,8760.525
698.591308594,8751.175
698.862670898,8746.375
699.133972168,8784.75
699.405151367,8762.25
699.676391602,8803.1
699.947570801,8793.175
700.21875,8823.85
700.489868164,8824.975
700.761047363,8824.6
701.032104492,8904.75
701.303100586,8828.525
701.57421875,8892.85
701.845214844,8894.9
702.116149902,8918.35
702.387207031,8886.55
702.65814209,8918.2
702.928955078,8969.75
703.199951172,8927.225
703.47076416,8905.45
703.741577148,8904.8
704.012451172,8978.175
704.28314209,8980.65
704.553955078,8975.525
704.824707031,9008.625
705.095397949,9028.825
705.366027832,9047.825
705.63671875,9074.625
705.907348633,9036.275
706.17791748,9036.75
706.448486328,9080.225
706.719055176,9085.325
706.989562988,9106.35
707.260131836,9133.5
707.530517578,9154.85
707.800964355,9120.1
708.071411133,9091.425
708.341796875,9128.25
708.612182617,9089.95
708.882446289,9093.95
709.152893066,9118.375
709.423156738,9133.0
709.693359375,9115.85
709.963623047,9140.4
710.233825684,9203.25
710.503967285,9153.375
710.774169922,9148.4
711.044311523,9149.125
711.31439209,9133.05
711.584533691,9152.65
711.854553223,9185.3
712.124572754,9196.775
712.39465332,9155.15
712.664611816,9212.7
712.934509277,9267.3
713.204467773,9207.025
713.474365234,9209.025
713.74420166,9229.65
714.014099121,9290.925
714.283874512,9234.9
714.553710938,9262.05
714.823486328,9238.925
715.093200684,9224.225
715.362915039,9268.0
715.632629395,9235.0
715.902282715,9235.375
716.171875,9233.85
716.441589355,9266.325
716.711181641,9218.2
716.980712891,9264.125
717.250244141,9247.525
717.519775391,9265.15
717.78918457,9246.175
718.058654785,9320.525
718.328125,9359.25
718.597473145,9295.65
718.866882324,9317.875
719.136230469,9318.625
719.405578613,9341.625
719.674865723,9348.7
719.944152832,9310.5
720.213439941,9280.575
720.48260498,9345.5
720.75177002,9358.5
721.020996094,9345.375
721.290100098,9360.55
721.559204102,9316.575
721.828308105,9383.25
722.097351074,9349.0
722.366455078,9341.725
722.635437012,9330.575
722.904418945,9298.725
723.173400879,9334.0
723.442321777,9351.75
723.711181641,9349.05
723.980102539,9366.2
724.248962402,9381.55
724.51776123,9331.775
724.786560059,9386.2
725.055358887,9363.625
725.324035645,9341.025
725.592834473,9395.075
725.86151123,9340.075
726.130187988,9360.2
726.398803711,9297.05
726.667419434,9361.4
726.935974121,9318.55
727.204528809,9291.35
727.473083496,9300.075
727.741638184,9258.525
728.010070801,9227.4
728.278564453,9223.6
728.546936035,9243.525
728.815368652,9167.575
729.08380127,9106.825
729.352111816,9080.675
729.620361328,8992.825
729.88873291,9050.55
730.156982422,9090.3
730.425231934,9105.875
730.693481445,9105.5
730.961669922,9171.075
731.229797363,9192.7
731.49798584,9221.725
731.766113281,9262.7
732.034118652,9316.925
732.302246094,9396.675
732.570251465,9423.575
732.838256836,9468.7
733.106262207,9544.9
733.374145508,9582.875
733.642089844,9631.625
733.909973145,9680.15
734.177856445,9760.675
734.445678711,9825.0
734.713562012,9945.175
734.981323242,9923.225
735.249084473,10000.4
735.516845703,10186.45
735.784545898,10247.125
736.052185059,10316.825
736.319885254,10367.5
736.587524414,10435.3
736.855102539,10498.425
737.122619629,10623.625
737.390197754,10664.925
737.657714844,10779.625
737.925170898,10834.025
738.192749023,10969.55
738.460144043,11015.425
738.727539062,11053.075
738.994995117,11185.775
739.262329102,11279.95
739.529663086,11371.575
739.79699707,11388.45
740.06427002,11443.7
740.331481934,11552.425
740.598754883,11591.025
740.865905762,11626.4
741.133056641,11795.65
741.40032959,11809.675
741.667358398,11895.2
741.934448242,11948.075
742.201599121,11955.65
742.468566895,12068.025
742.735534668,12140.15
743.002563477,12188.175
743.26953125,12127.075
743.536437988,12231.3
743.803405762,12324.05
744.0703125,12311.775
744.337097168,12382.7
744.604003906,12285.3
744.870727539,12361.525
745.137512207,12434.475
745.40423584,12448.55
745.670959473,12456.975
745.93762207,12450.85
746.204284668,12463.25
746.470947266,12480.125
746.737548828,12461.8
747.004089355,12517.325
747.270751953,12521.65
747.53717041,12570.55
747.803710938,12492.575
748.070251465,12466.775
748.336608887,12468.925
748.603027344,12457.975
748.869445801,12494.175
749.135803223,12485.35
749.402099609,12485.95
749.668457031,12498.825
749.934753418,12458.75
750.20098877,12408.5
750.467224121,12458.45
750.733459473,12427.7
750.999572754,12390.775
751.26574707,12290.4
751.531860352,12349.2
751.797912598,12315.175
752.064025879,12263.35
752.330078125,12288.2
752.596069336,12227.05
752.862060547,12229.425
753.127990723,12200.075
753.393920898,12172.0
753.659912109,12135.65
753.925720215,12189.425
754.19152832,12098.175
754.457397461,12066.5
754.723144531,12036.05
754.988952637,11957.925
755.254699707,12005.675
755.520385742,12023.0
755.786071777,12036.5
756.051696777,12008.25
756.317382812,11935.725
756.582946777,11884.65
756.848510742,11908.525
757.114074707,11864.8
757.379577637,11808.15
757.645080566,11904.3
757.910583496,11835.9
758.175964355,11783.6
758.441345215,11757.625
758.706848145,11607.375
758.972106934,11627.875
759.237426758,11647.3
759.502807617,11666.825
759.768005371,11668.85
760.03326416,11617.975
760.298522949,11529.25
760.563659668,11570.175
760.828857422,11524.95
761.093994141,11563.025
761.359130859,11502.3
761.624206543,11473.025
761.889282227,11423.375
762.15423584,11401.275
762.419250488,11430.8
762.684265137,11346.925
762.949157715,11318.475
763.214050293,11322.15
763.479003906,11308.175
763.743835449,11279.45
764.008666992,11209.7
764.2734375,11231.725
764.538208008,11269.975
764.802978516,11265.775
765.067687988,11243.075
765.332397461,11220.55
765.597045898,11205.975
765.861694336,11192.725
766.126342773,11147.375
766.390930176,11112.075
766.655395508,11040.175
766.920043945,11044.375
767.184509277,11008.875
767.448974609,11016.825
767.713439941,11000.8
767.977783203,10915.475
768.2421875,10994.925
768.506591797,10911.55
768.770874023,11008.8
769.03515625,10978.55
769.299499512,10954.55
769.563720703,10956.125
769.827941895,10886.4
770.092163086,10866.15
770.356323242,10834.725
770.620483398,10865.525
770.88458252,10855.25
771.148681641,10858.475
771.412719727,10854.25
771.676757812,10868.45
771.940734863,10777.725
772.204711914,10798.15
772.468688965,10754.35
772.73260498,10733.35
772.996459961,10748.95
773.260314941,9579.4
773.524169922,1217.025
773.787963867,155.0
774.051696777,121.45
774.315551758,119.35
774.579223633,119.675
774.842895508,118.025
775.106567383,122.05
775.370239258,116.775
775.633789062,122.2
775.897399902,125.6
776.160949707,115.5
776.424499512,119.575
776.687988281,121.85
776.951477051,126.6
777.214904785,120.025
777.47833252,120.25
