191.299911499,97.975
191.603515625,100.85
191.907119751,99.125
192.210693359,107.225
192.514251709,99.15
192.817810059,103.725
193.121368408,101.6
193.42489624,107.025
193.728408813,100.075
194.031936646,98.675
194.33543396,95.325
194.638916016,112.325
194.94241333,97.9
195.245880127,97.925
195.549331665,94.775
195.852767944,101.25
196.156204224,181.65
196.459625244,181.05
196.763015747,178.9
197.066436768,188.825
197.369812012,180.55
197.673187256,181.475
197.9765625,176.95
198.279922485,180.05
198.583251953,174.1
198.886581421,179.3
199.18989563,186.6
199.493209839,183.1
199.79649353,172.625
200.09979248,184.875
200.403076172,177.1
200.706314087,181.225
201.009567261,181.6
201.312820435,182.3
201.616027832,171.625
201.919235229,166.6
202.222457886,174.95
202.525634766,175.8
202.828826904,169.625
203.132003784,169.675
203.435150146,172.3
203.738296509,174.875
204.041412354,170.95
204.344558716,175.225
204.647659302,174.825
204.950759888,176.75
205.253845215,178.375
205.556930542,172.0
205.859985352,171.95
206.163024902,173.0
206.466079712,176.125
206.769104004,186.075
207.072113037,175.7
207.375137329,174.75
207.678131104,175.275
207.981109619,179.6
208.284088135,173.85
208.587036133,174.25
208.889984131,177.4
209.19291687,175.925
209.495849609,181.425
209.798751831,177.525
210.101654053,179.65
210.404556274,178.45
210.707427979,175.925
211.010269165,182.075
211.31312561,183.55
211.615982056,181.85
211.918807983,182.4
212.221618652,178.675
212.524429321,176.45
212.827224731,188.725
213.130004883,182.275
213.432769775,185.275
213.735534668,182.45
214.038269043,186.175
214.341003418,187.1
214.643737793,190.25
214.946456909,190.6
215.249145508,193.825
215.551834106,192.15
215.854507446,193.325
216.157165527,194.175
216.45980835,191.625
216.762451172,198.775
217.065078735,198.725
217.36769104,196.8
217.670303345,197.325
217.972885132,199.1
218.275466919,207.675
218.578048706,197.275
218.880599976,209.175
219.183120728,207.6
219.485656738,206.825
219.788192749,214.6
220.090682983,219.875
220.393188477,224.575
220.695663452,246.0
220.998138428,254.625
221.300582886,286.9
221.603042603,296.725
221.905487061,331.975
222.207901001,367.15
222.510299683,411.175
222.812728882,462.75
223.115097046,528.525
223.41746521,590.5
223.719848633,650.15
224.022171021,717.725
224.324508667,796.55
224.626846313,880.825
224.929168701,967.225
225.231460571,1059.3
225.533737183,1139.775
225.836013794,1233.225
226.138290405,1308.6
226.440536499,1381.975
226.742767334,1466.275
227.044998169,1548.9
227.347213745,1635.65
227.649429321,1685.8
227.951629639,1745.975
228.253799438,1819.575
228.555953979,1869.35
228.858123779,1927.1
229.160263062,1976.95
229.462371826,2019.325
229.764511108,2044.425
230.066619873,2087.125
230.36869812,2118.95
230.670776367,2167.05
230.972854614,2202.7
231.274902344,2251.925
231.576950073,2292.6
231.878967285,2319.75
232.180999756,2383.8
232.48298645,2435.65
232.784988403,2481.5
233.086975098,2497.75
233.388946533,2541.7
233.69090271,2606.45
233.992858887,2640.375
234.294769287,2649.375
234.596694946,2704.675
234.898605347,2741.425
235.200500488,2757.8
235.502380371,2809.325
235.804244995,2835.625
236.106109619,2821.575
236.407958984,2863.275
236.709777832,2905.575
237.011581421,2918.275
237.313400269,2924.375
237.615203857,2926.625
237.916976929,2978.875
238.21875,2991.7
238.520507812,3018.8
238.822250366,3036.875
239.12399292,3028.5
239.425704956,3092.35
239.727401733,3074.25
240.02911377,3102.5
240.330780029,3099.85
240.632446289,3129.175
240.93409729,3158.625
241.23576355,3181.725
241.537384033,3221.5
241.839004517,3244.075
242.140594482,3266.65
242.442199707,3321.75
242.743774414,3342.675
243.045333862,3377.25
243.346923828,3399.4
243.648452759,3437.3
243.949966431,3490.25
244.251495361,3539.55
244.552993774,3555.9
244.854492188,3564.775
245.155975342,3601.925
245.457443237,3654.9
245.758880615,3684.95
246.060333252,3715.25
246.36177063,3727.075
246.66317749,3758.85
246.964569092,3783.05
247.265945435,3813.525
247.567337036,3825.325
247.86869812,3914.525
248.170059204,3941.375
248.471389771,4000.95
248.772705078,4059.375
249.074035645,4115.7
249.375335693,4175.85
249.676620483,4236.05
249.977890015,4327.75
250.279159546,4397.925
250.58039856,4489.55
250.881637573,4548.65
251.182876587,4627.45
251.484069824,4735.975
251.785263062,4815.825
252.086456299,4915.2
252.387619019,4986.575
252.688781738,5091.625
252.989929199,5160.575
253.291061401,5264.25
253.592178345,5363.95
253.893280029,5449.1
254.194366455,5516.825
254.49546814,5599.425
254.796524048,5613.6
255.097579956,5710.325
255.398620605,5738.75
255.699645996,5829.175
256.000640869,5851.6
256.30166626,5864.075
256.602661133,5944.45
256.903656006,5921.475
257.204589844,5969.8
257.505523682,5946.95
257.80645752,5994.975
258.107391357,5972.625
258.408294678,5965.525
258.709228516,5928.25
259.010070801,5914.6
259.310943604,5877.2
259.611846924,5857.425
259.912658691,5791.225
260.213500977,5747.625
260.514343262,5719.575
260.815124512,5643.625
261.115936279,5624.575
261.416717529,5605.05
261.717468262,5552.7
262.018218994,5528.475
262.318969727,5513.525
262.619689941,5530.575
262.920410156,5547.125
263.221130371,5593.275
263.521789551,5593.175
263.822479248,5626.025
264.123138428,5670.05
264.42376709,5678.8
264.72442627,5661.775
265.025054932,5649.175
265.325622559,5673.475
265.626251221,5623.275
265.926818848,5585.075
266.227386475,5528.125
266.527954102,5505.225
266.828460693,5501.325
267.12902832,5379.1
267.429534912,5350.15
267.730010986,5288.05
268.030517578,5214.225
268.330993652,5191.075
268.631439209,5146.7
268.931915283,5114.475
269.232299805,5075.225
269.532745361,5036.75
269.8331604,5002.3
270.133544922,4957.35
270.433929443,4940.45
270.734313965,4898.125
271.034637451,4912.225
271.334991455,4869.35
271.635314941,4889.975
271.935638428,4878.275
272.235931396,4906.2
272.536254883,4935.45
272.836486816,4968.8
273.136749268,5022.4
273.437011719,5095.45
273.737213135,5169.025
274.037445068,5222.925
274.337677002,5305.175
274.6378479,5357.975
274.938049316,5448.575
275.238220215,5498.3
275.538360596,5610.3
275.838500977,5655.0
276.138641357,5756.95
276.438751221,5789.675
276.738830566,5872.675
277.03894043,5911.4
277.338989258,6001.675
277.639038086,6060.225
277.939056396,6102.95
278.239105225,6135.55
278.539093018,6197.75
278.839141846,6227.3
279.139129639,6290.225
279.439086914,6323.875
279.739044189,6383.25
280.039001465,6446.45
280.338928223,6437.625
280.63885498,6498.625
280.938781738,6542.425
281.238647461,6549.4
281.538513184,6548.75
281.838409424,6561.875
282.138244629,6597.975
282.438079834,6585.025
282.737945557,6619.6
283.037719727,6605.675
283.337524414,6630.525
283.637298584,6630.5
283.937072754,6646.2
284.236816406,6638.85
284.536560059,6640.75
284.836303711,6641.975
285.136016846,6682.025
285.43572998,6673.35
285.735412598,6643.675
286.035064697,6645.675
286.334747314,6696.65
286.634368896,6682.675
286.933990479,6607.05
287.233642578,6576.825
287.533203125,6568.175
287.832824707,6487.075
288.132385254,6419.875
288.431945801,6307.5
288.731506348,6189.575
289.031036377,6077.125
289.330566406,5971.325
289.630065918,5952.5
289.92956543,5921.35
290.229034424,5994.85
290.528503418,6099.225
290.827941895,6238.725
291.127380371,6380.65
291.42678833,6440.925
291.726226807,6560.525
292.025604248,6593.5
292.324981689,6615.0
292.624359131,6631.95
292.923736572,6627.55
293.223052979,6628.95
293.522369385,6652.475
293.821685791,6590.425
294.12097168,6579.8
294.420257568,6548.025
294.719543457,6536.2
295.018768311,6519.575
295.318023682,6448.15
295.617248535,6402.15
295.916442871,6363.575
296.215667725,6305.275
296.514862061,6189.325
296.813995361,6021.825
297.11315918,5863.375
297.412322998,5733.925
297.711425781,5721.0
298.010559082,5863.35
298.309631348,6016.45
298.608734131,6176.75
298.907806396,6340.875
299.206848145,6451.775
299.505889893,6513.85
299.804901123,6609.4
300.103912354,6664.275
300.402954102,6731.525
300.701904297,6782.55
301.00088501,6853.7
301.299835205,6867.025
301.5987854,6881.725
301.897735596,7001.525
302.196624756,7019.85
302.495513916,7095.05
302.794403076,7100.275
303.093292236,7134.975
303.392120361,7211.75
303.690979004,7260.5
303.989837646,7294.35
304.288604736,7358.375
304.587402344,7363.525
304.886199951,7364.725
305.184967041,7430.2
305.483734131,7440.575
305.782501221,7490.575
306.081176758,7493.35
306.37991333,7522.925
306.678619385,7543.0
306.977294922,7533.925
307.275970459,7558.65
307.574645996,7576.925
307.873260498,7538.65
308.171875,7564.475
308.470489502,7543.625
308.769104004,7487.525
309.067687988,7485.775
309.366241455,7494.2
309.664794922,7485.875
309.963348389,7478.95
310.261871338,7458.075
310.560394287,7466.725
310.858856201,7484.375
311.157348633,7527.425
311.455810547,7528.575
311.754272461,7578.875
312.052703857,7620.9
312.351135254,7641.7
312.649536133,7622.7
312.947937012,7601.55
313.246307373,7660.625
313.544647217,7657.175
313.843017578,7579.925
314.141387939,7558.775
314.439697266,7583.775
314.738006592,7524.225
315.036315918,7490.05
315.334564209,7415.575
315.6328125,7371.95
315.931091309,7303.475
316.229309082,7220.25
316.527526855,7112.125
316.825744629,7080.575
317.123901367,7000.2
317.422088623,6954.725
317.720245361,6948.55
318.0184021,6972.7
318.316497803,6989.55
318.614654541,7047.675
318.912750244,7099.425
319.21081543,7103.575
319.50894165,7136.7
319.806945801,7130.375
320.104980469,7128.325
320.403045654,7126.625
320.701049805,7105.35
320.999023438,7099.25
321.297027588,7032.65
321.595001221,7038.125
321.892913818,7003.25
322.190887451,6959.425
322.488830566,6897.325
322.786712646,6873.525
323.084625244,6790.675
323.382507324,6784.35
323.680358887,6713.7
323.978210449,6640.8
324.276062012,6594.475
324.573852539,6575.35
324.871643066,6503.675
325.169464111,6455.975
325.467224121,6413.525
325.764984131,6366.175
326.062744141,6289.075
326.360473633,6215.1
326.658203125,6180.9
326.955871582,6135.075
327.253570557,6065.325
327.551239014,6025.375
327.848907471,5959.375
328.146514893,5897.875
328.444152832,5852.85
328.741790771,5814.725
329.039367676,5765.75
329.336914062,5717.525
329.634521484,5663.0
329.932067871,5627.675
330.229553223,5548.575
330.527160645,5526.075
330.824615479,5476.075
331.12210083,5417.25
331.419586182,5296.775
331.717041016,5273.05
332.014465332,5199.925
332.311920166,5176.3
332.609313965,5123.0
332.906707764,5117.175
333.204101562,5114.725
333.501495361,5128.2
333.798828125,5189.375
334.096160889,5183.775
334.39352417,5252.75
334.690795898,5287.45
334.988098145,5325.625
335.285400391,5384.8
335.582641602,5381.175
335.879882812,5423.925
336.177124023,5416.875
336.474334717,5482.075
336.77154541,5468.85
337.068725586,5484.725
337.365905762,5505.9
337.66305542,5518.025
337.960205078,5562.6
338.257324219,5549.375
338.554443359,5535.025
338.8515625,5559.025
339.148590088,5570.25
339.445648193,5585.7
339.742736816,5575.275
340.039764404,5532.8
340.336761475,5534.9
340.63381958,5485.2
340.930755615,5425.75
341.227722168,5378.975
341.524688721,5318.85
341.821624756,5294.8
342.118560791,5301.775
342.415496826,5359.5
342.712402344,5470.275
343.009246826,5611.95
343.306121826,5685.325
343.602966309,5742.1
343.899810791,5832.425
344.196624756,5916.175
344.493438721,5923.925
344.79019165,5958.975
345.086975098,5984.05
345.383758545,6055.875
345.680480957,6022.925
345.977203369,6024.425
346.273956299,6079.15
346.570617676,6068.65
346.86730957,6087.7
347.163970947,6059.875
347.460601807,6097.6
347.757232666,6111.825
348.053894043,6089.65
348.350463867,6042.15
348.647064209,6016.3
348.943634033,6006.05
349.24017334,6027.625
349.536712646,5972.175
349.833251953,5994.725
350.129760742,5972.475
350.426208496,5956.325
350.722747803,5933.05
351.019195557,5915.275
351.315612793,5891.55
351.612060547,5847.175
351.908508301,5795.55
352.204864502,5769.75
352.501281738,5724.725
352.797637939,5675.525
353.093963623,5579.625
353.390319824,5547.525
353.686645508,5452.825
353.982940674,5404.0
354.27923584,5381.975
354.575531006,5341.925
354.871765137,5328.1
355.167999268,5308.175
355.464233398,5306.55
355.760437012,5324.325
356.056640625,5295.275
356.352813721,5320.675
356.648956299,5324.6
356.945129395,5336.55
357.241271973,5331.725
357.537384033,5351.95
357.833496094,5305.125
358.129577637,5285.325
358.425628662,5262.225
358.721679688,5253.4
359.017730713,5265.55
359.313720703,5176.775
359.609710693,5176.575
359.905761719,5117.25
360.201721191,5086.8
360.497650146,5020.025
360.793609619,5038.85
361.089538574,4954.1
361.385437012,4877.9
361.681365967,4853.3
361.977233887,4809.525
362.273071289,4764.525
362.568908691,4659.45
362.864746094,4560.825
363.160552979,4451.775
363.456359863,4299.175
363.752166748,4187.35
364.047912598,4112.05
364.343658447,4097.325
364.639434814,4124.0
364.935119629,4147.775
365.230834961,4199.075
365.526550293,4227.225
365.822174072,4226.8
366.117858887,4273.875
366.413482666,4309.5
366.709075928,4308.925
367.004730225,4225.5
367.300292969,4211.6
367.595855713,4273.6
367.891448975,4173.625
368.186981201,4089.95
368.482513428,4058.575
368.778015137,4059.775
369.073547363,4010.8
369.36895752,4033.65
369.664428711,3942.95
369.95993042,3846.725
370.255310059,3791.375
370.550720215,3767.325
370.846160889,3748.15
371.14151001,3717.45
371.436859131,3696.825
371.73223877,3679.3
372.027557373,3649.825
372.322875977,3603.475
372.618164062,3573.3
372.913482666,3561.925
373.208709717,3510.975
373.503967285,3478.625
373.799194336,3427.0
374.094421387,3433.875
374.389648438,3400.975
374.684844971,3410.9
374.979980469,3452.725
375.275146484,3457.85
375.570281982,3485.75
375.865386963,3485.475
376.160522461,3437.925
376.455596924,3434.125
376.750640869,3515.625
377.045715332,3540.925
377.340759277,3564.275
377.635772705,3611.225
377.93081665,3644.75
378.225769043,3716.15
378.520751953,3757.225
378.815734863,3729.55
379.110656738,3871.65
379.405548096,4005.2
379.700500488,3875.2
379.995391846,3685.525
380.290252686,3724.125
380.585083008,3821.55
380.879974365,3872.05
381.17477417,3789.45
381.469543457,3749.1
381.764404297,3728.825
382.059143066,3758.7
382.353912354,3841.95
382.648651123,3905.475
382.943389893,3892.375
383.238067627,3754.75
383.532775879,3753.7
383.827484131,3703.95
384.12210083,3693.8
384.416778564,3660.125
384.711425781,3569.725
385.006011963,3590.7
385.300628662,3581.8
385.595184326,3648.3
385.88973999,3732.375
386.184295654,3805.25
386.478820801,3882.725
386.77331543,3961.725
387.067840576,4065.75
387.362335205,4147.875
387.656768799,4203.825
387.951202393,4245.6
388.245635986,4291.525
388.540039062,4367.05
388.834472656,4413.55
389.128875732,4316.8
389.423187256,4105.175
389.717559814,4089.6
390.011871338,4179.125
390.306182861,4203.525
390.600463867,4226.9
390.894775391,4308.725
391.189025879,4328.425
391.48324585,4312.9
391.777526855,4346.375
392.071685791,4557.325
392.365875244,4635.025
392.660064697,4665.05
392.95425415,4962.425
393.248382568,4962.2
393.542510986,4563.25
393.836608887,4387.2
394.130706787,4400.1
394.424804688,4344.35
394.71887207,4455.85
395.012878418,4446.175
395.306915283,4339.4
395.600921631,4276.325
395.894927979,4246.525
396.188903809,4300.6
396.482879639,4304.625
396.776794434,4490.75
397.070739746,4436.25
397.364654541,4470.15
397.658538818,4793.0
397.952423096,4825.65
398.246307373,4796.95
398.540100098,5267.85
398.833953857,5153.025
399.127746582,4745.525
399.421508789,4749.1
399.715301514,4701.575
400.009063721,4611.2
400.30279541,4474.575
400.596496582,4389.7
400.890258789,4529.35
401.183929443,4625.5
401.47756958,4523.375
401.771240234,4303.0
402.064880371,4334.625
402.35848999,4372.5
402.652130127,4272.3
402.945678711,4332.8
403.239257812,4297.925
403.532775879,4254.65
403.82635498,4288.975
404.119842529,4223.15
404.413360596,4213.85
404.706848145,4264.75
405.000274658,4190.3
405.293762207,4260.575
405.587188721,4308.775
405.880584717,4174.4
406.17401123,4010.45
406.467407227,3836.875
406.760742188,3828.775
407.054107666,3877.625
407.347442627,3817.2
407.640716553,3810.025
407.934051514,3832.375
408.227325439,3909.9
408.520568848,4082.325
408.813842773,4167.025
409.107086182,3983.3
409.400238037,3947.175
409.693450928,3883.175
409.986633301,3997.2
410.279754639,3917.725
410.572875977,3673.875
410.86605835,3596.9
411.159118652,3616.775
411.452209473,3615.8
411.745330811,3505.875
412.038360596,3440.875
412.331390381,3465.8
412.624420166,3503.875
412.917388916,3415.6
413.210388184,3250.625
413.503387451,3224.025
413.796295166,3150.325
414.089233398,2988.85
414.382141113,2925.3
414.675048828,2911.8
414.967926025,2935.4
415.260803223,2882.35
415.55368042,2907.05
415.846466064,2881.4
416.139282227,2944.2
416.432098389,3061.35
416.724853516,3057.9
417.017608643,2996.75
417.31036377,3001.5
417.603088379,3127.15
417.895782471,3101.525
418.188476562,3071.675
418.481140137,3129.25
418.773803711,3184.85
419.066436768,3171.5
419.359039307,3219.275
419.651641846,3228.525
419.944244385,3228.6
420.236816406,3185.675
420.529327393,3361.975
420.821899414,3449.325
421.114379883,3369.475
421.406860352,3614.25
421.699371338,3811.8
421.991821289,3761.9
422.284240723,3577.9
422.576721191,3471.75
422.869110107,3358.3
423.161468506,3300.15
423.453857422,3336.8
423.74621582,3225.15
424.038543701,3128.9
424.330871582,3072.525
424.623168945,3030.325
424.915435791,3147.6
425.207702637,3111.475
425.499969482,3059.125
425.792205811,3009.875
426.084411621,2800.875
426.376617432,2871.7
426.668762207,2924.35
426.9609375,2820.6
427.253082275,2917.025
427.545196533,3293.5
427.837310791,3032.575
428.129425049,2790.375
428.421447754,2980.025
428.713531494,2979.95
429.005554199,2969.45
429.297576904,2980.05
429.589599609,3355.75
429.881561279,3648.2
430.173522949,3448.35
430.465484619,3405.75
430.757415771,3465.775
431.049316406,3261.775
431.341186523,3057.35
431.633117676,2978.5
431.924957275,2714.05
432.21673584,2612.625
432.508636475,2736.9
432.800415039,2757.175
433.092163086,2662.975
433.383972168,2635.175
433.675689697,3249.675
433.967437744,3680.0
434.259155273,2856.775
434.550872803,2579.1
434.842498779,2622.175
435.134185791,2746.875
435.425842285,2768.525
435.717437744,2679.875
436.009063721,2526.9
436.30065918,2640.05
436.592224121,2946.4
436.883758545,2773.0
437.175323486,2527.575
437.466827393,2521.625
437.758331299,2531.95
438.049804688,2559.025
438.341247559,2611.575
438.63269043,2670.975
438.924163818,2661.35
439.215515137,2628.525
439.50692749,2547.5
439.798309326,2550.575
440.089660645,2557.8
440.380981445,2478.325
440.672332764,2468.0
440.963623047,2705.475
441.254882812,3112.625
441.546173096,3270.9
441.837402344,3055.375
442.128631592,2887.8
442.41986084,2864.625
442.711029053,2755.075
443.002197266,2828.725
443.293365479,2986.65
443.584503174,3102.125
443.875610352,3068.725
444.166717529,2837.35
444.457794189,2877.25
444.748840332,2884.45
445.039916992,2840.525
445.330932617,2917.275
445.621948242,2768.25
445.912963867,2606.425
446.203918457,2811.725
446.494812012,3007.825
446.785827637,2838.475
447.076721191,2672.225
447.367584229,2654.625
447.658447266,2638.75
447.949371338,2680.65
448.24017334,2576.85
448.530975342,2510.975
448.821838379,2664.975
449.112579346,2741.85
449.40335083,2666.175
449.694152832,2694.825
449.984863281,2702.0
450.27557373,2648.25
450.56628418,2694.7
450.856933594,2710.475
451.147583008,2579.225
451.438262939,2475.275
451.728881836,2645.675
452.019470215,2731.35
452.310089111,2553.45
452.600646973,2572.6
452.891174316,2634.225
453.181732178,2480.9
453.472229004,2346.6
453.762695312,2450.1
454.053222656,2481.825
454.343658447,2356.075
454.634063721,2306.375
454.924530029,2469.175
455.214935303,2586.625
455.505279541,2650.4
455.795715332,2527.15
456.086029053,2352.3
456.376312256,2330.95
456.666687012,2364.825
456.956939697,2442.425
457.247192383,2451.725
457.537445068,2517.975
457.827728271,2684.675
458.117919922,2612.5
458.408081055,2557.325
458.698303223,2714.975
458.988433838,2651.575
459.278564453,2490.025
459.568725586,2740.35
459.858825684,2852.75
460.148864746,2565.325
460.438995361,2532.825
460.729034424,2589.925
461.019042969,2593.225
461.309082031,2763.75
461.599060059,2644.1
461.889007568,2241.225
462.179016113,2097.725
462.468933105,2313.775
462.75881958,2413.2
463.048736572,2187.925
463.338592529,2414.825
463.628448486,2745.475
463.918365479,2463.05
464.2081604,2624.2
464.497924805,2568.925
464.787780762,2701.3
465.077514648,2973.0
465.367218018,2626.625
465.657012939,2809.6
465.946685791,3178.675
466.236358643,2826.425
466.526092529,2346.95
466.815734863,2336.375
467.105316162,2286.275
467.394927979,2298.35
467.684570312,2174.125
467.974121094,2254.725
468.263671875,2352.2
468.553222656,2166.025
468.842773438,2074.375
469.132232666,1969.175
469.42175293,2001.85
469.711212158,1977.4
470.000640869,1864.775
470.290100098,1921.825
470.579498291,1946.675
470.868835449,1946.45
471.158294678,1912.6
471.447601318,1904.2
471.736907959,1954.9
472.026275635,2016.0
472.315551758,1997.775
472.604797363,1986.65
472.894104004,2117.7
473.183319092,2207.95
473.47253418,2196.4
473.761779785,2189.55
474.05090332,2127.95
474.340087891,2073.0
474.629241943,2029.55
474.918365479,2187.15
475.207427979,2413.95
475.496551514,2450.425
475.785614014,2200.675
476.074645996,2030.625
476.363708496,2120.6
476.652679443,2234.875
476.941650391,2088.025
477.230682373,1937.975
477.519622803,1942.475
477.808502197,2071.675
478.097412109,2305.05
478.386352539,2258.25
478.675201416,2032.975
478.964050293,1942.6
479.25289917,2097.85
479.541717529,2156.925
479.830474854,2023.5
480.11932373,2327.9
480.408050537,2470.1
480.696777344,2135.9
480.985534668,2026.9
481.274200439,2088.95
481.562866211,2317.5
481.851593018,2346.825
482.140197754,2275.875
482.428833008,2153.525
482.717468262,1962.375
483.006011963,1987.65
483.294586182,2118.05
483.5831604,2131.725
483.871673584,2015.2
484.16015625,2133.25
484.448699951,2359.475
484.7371521,2388.625
485.02557373,2390.45
485.314025879,2146.3
485.602416992,3298.85
485.890777588,11880.4
486.179199219,10619.05
486.467559814,2828.25
486.755859375,2054.375
487.044219971,2397.2
487.332519531,2563.7
487.620758057,2195.85
487.908966064,1975.15
488.197265625,1791.725
488.485473633,1703.725
488.773651123,1800.075
489.061859131,1797.85
489.350006104,1749.175
489.638122559,1702.475
489.926300049,1717.7
490.214355469,1671.15
490.502441406,1627.05
490.790527344,1562.5
491.078552246,1753.775
491.366546631,1741.7
491.654602051,1537.425
491.942565918,1599.725
492.230499268,1635.8
492.518493652,1594.95
492.806396484,1643.25
493.094268799,1561.925
493.382202148,1585.55
493.670074463,1693.3
493.957885742,1556.375
494.245727539,1556.1
494.533508301,1700.875
494.821289062,1600.975
495.109100342,1463.225
495.396850586,1427.625
495.684539795,1376.2
495.972290039,1567.65
496.25994873,1868.4
496.547607422,1859.625
496.835296631,1713.475
497.122894287,1429.75
497.410522461,1363.675
497.6980896,1362.35
497.985687256,1321.325
498.273223877,1422.0
498.560760498,1480.8
498.848266602,1503.575
499.135772705,1482.325
499.423217773,1520.925
499.710693359,1599.75
499.998138428,1543.4
500.285522461,1406.05
500.572937012,1342.35
500.860290527,1386.475
501.147644043,1480.8
501.434997559,1666.425
501.722290039,1547.3
502.00958252,1340.625
502.296875,1568.525
502.584106445,1557.375
502.871337891,1413.625
503.158599854,1474.275
503.445770264,1544.0
503.732910156,1528.7
504.020141602,1364.825
504.307220459,1343.025
504.594329834,1365.975
504.881469727,1310.5
505.168518066,1377.55
505.455535889,1428.775
505.742614746,1320.675
506.029632568,1265.875
506.316589355,1432.725
506.603637695,1509.775
506.890563965,1356.25
507.177459717,1200.925
507.464385986,1121.2
507.751312256,1319.075
508.038146973,1387.125
508.325012207,1253.325
508.611877441,1318.35
508.898681641,1329.475
509.185424805,1187.95
509.472259521,1151.15
509.759002686,1227.225
510.045715332,1245.875
510.332458496,1201.6
510.619140625,1257.325
510.905761719,1172.175
511.192504883,1176.025
511.479095459,1217.975
511.765686035,1176.2
512.052307129,1098.175
512.338928223,1051.325
512.625427246,1100.35
512.91204834,1145.45
513.198486328,1138.725
513.484985352,1104.45
513.77142334,1041.975
514.057922363,1078.575
514.344299316,1070.05
514.63079834,1043.725
514.917175293,1024.325
515.203552246,959.6
515.489868164,928.525
515.776245117,1029.1
516.0625,1063.3
516.348815918,985.275
516.635070801,1022.0
516.921325684,1068.45
517.207580566,1012.35
517.493774414,932.775
517.779968262,945.15
518.066101074,976.675
518.352294922,932.3
518.638366699,930.55
518.924499512,1001.25
519.210632324,1071.375
519.496643066,1035.7
519.782714844,954.2
520.068786621,929.375
520.354736328,889.4
520.640686035,853.8
520.926757812,902.8
521.212646484,959.6
521.498535156,962.8
521.784484863,912.95
522.0703125,858.875
522.356262207,879.2
522.642089844,944.4
522.927856445,936.3
523.213684082,931.6
523.499511719,917.425
523.78527832,953.875
524.070983887,1003.65
524.356750488,985.975
524.64239502,943.925
524.928039551,935.35
525.213806152,960.975
525.499389648,939.175
525.784973145,962.95
526.070617676,1005.65
526.356140137,972.55
526.641723633,980.45
526.927307129,1036.05
527.212768555,1037.875
527.498291016,1018.1
527.783752441,1025.45
528.069213867,1003.75
528.354675293,1020.975
528.640014648,1154.1
528.925476074,1214.95
529.21081543,1146.775
529.496154785,1131.25
529.781555176,1100.325
530.066833496,1123.075
530.352050781,1135.4
530.637390137,1120.55
530.922607422,1119.3
531.207824707,1128.25
531.493041992,1099.45
531.778198242,1167.25
532.063354492,1147.25
532.348571777,1092.625
532.633666992,1108.075
532.918762207,1181.4
533.203857422,1248.05
533.488891602,1267.575
533.773925781,1231.8
534.059020996,1201.5
534.343933105,1232.575
534.628967285,1210.925
534.91394043,1225.95
535.198852539,1239.2
535.483703613,1208.0
535.768676758,1172.05
536.053527832,1171.375
536.338317871,1130.85
536.62322998,1075.9
536.90802002,1066.625
537.192810059,1080.375
537.477539062,1146.0
537.762329102,1182.95
538.047058105,1216.6
538.331726074,1242.15
538.616455078,1219.425
538.901123047,1204.875
539.18572998,1244.2
539.470397949,1244.475
539.755004883,1243.8
540.039550781,1201.75
540.32409668,1167.05
540.608703613,1208.7
540.893188477,1284.675
541.17767334,1299.55
541.462158203,1305.575
541.746643066,1254.425
542.031066895,1288.5
542.315429688,1327.225
542.59979248,1332.1
542.884216309,1305.55
543.168579102,1304.35
543.452941895,1307.925
543.737243652,1356.3
544.021484375,1395.175
544.305725098,1389.175
544.590026855,1361.9
544.874267578,1383.825
545.158447266,1438.375
545.442626953,1373.7
545.726806641,1284.8
546.010925293,1309.125
546.29510498,1332.05
546.579162598,1325.725
546.863220215,1351.1
547.147277832,1416.825
547.431335449,1474.15
547.715332031,1534.875
547.999328613,1619.55
548.283325195,1630.75
548.567260742,1498.05
548.851135254,1483.225
549.135070801,1463.0
549.419006348,1385.625
549.702819824,1457.425
549.986755371,1515.0
550.270507812,1489.325
550.554321289,1530.65
550.83807373,1535.4
551.121826172,1509.65
551.405517578,1526.7
551.689331055,1613.5
551.973022461,1811.475
552.256652832,1856.35
552.540344238,1779.55
552.823974609,1751.125
553.107543945,1744.575
553.391174316,1797.575
553.674743652,1835.975
553.958251953,1854.025
554.241821289,1847.125
554.525268555,1791.4
554.808776855,1802.575
555.092285156,1956.175
555.375671387,2031.35
555.659057617,2030.925
555.942504883,2048.7
556.225891113,2082.75
556.509216309,2045.55
556.792541504,1981.475
557.075866699,2032.2
557.359130859,2064.225
557.64239502,2068.7
557.92565918,2125.2
558.208862305,2103.925
558.49206543,2054.25
558.77532959,2072.85
559.058410645,2117.6
559.341552734,2084.525
559.624694824,2140.425
559.907775879,2220.6
560.190856934,2318.35
560.473937988,2317.65
560.756896973,2334.575
561.039978027,2366.55
561.322937012,2327.9
561.605895996,2315.95
561.88885498,2309.7
562.171813965,2303.325
562.454650879,2282.75
562.737548828,2321.675
563.020446777,2375.675
563.303283691,2395.35
563.58605957,2412.475
563.868896484,2430.425
564.151672363,2489.1
564.434387207,2511.4
564.717163086,2483.6
564.99987793,2513.6
565.282531738,2563.625
565.565185547,2527.375
565.847839355,2539.975
566.130432129,2634.6
566.413085938,2621.425
566.695678711,2633.675
566.978149414,2722.825
567.260681152,2853.45
567.543273926,2916.85
567.825744629,2822.275
568.108154297,2870.5
568.390686035,2977.775
568.673095703,3071.9
568.955505371,3115.175
569.237854004,3147.9
569.520202637,3382.75
569.802490234,3562.25
570.084838867,3545.75
570.367126465,3396.6
570.649414062,3408.275
570.93170166,3728.825
571.213928223,3786.4
571.496154785,3564.925
571.778381348,3767.325
572.06048584,4013.525
572.342590332,3606.375
572.624755859,3317.95
572.906860352,3359.45
573.188903809,3965.725
573.470947266,4176.575
573.752990723,3964.375
574.03503418,4045.0
574.317016602,4398.1
574.598937988,4214.175
574.88092041,4114.275
575.162841797,4268.075
575.444763184,3941.875
575.726623535,3723.15
576.008483887,3768.325
576.290344238,4113.15
576.572143555,4293.15
576.853881836,4357.825
577.135681152,4275.575
577.417419434,4336.15
577.699157715,5070.6
577.980895996,5241.75
578.262573242,4667.025
578.544128418,4256.85
578.825866699,4185.075
579.107421875,3941.275
579.388977051,4087.35
579.670593262,4438.625
579.952148438,4298.925
580.233642578,4390.825
580.515197754,4505.325
580.796691895,4245.45
581.078125,4413.225
581.359619141,5735.425
581.640991211,5797.05
581.922363281,5015.925
582.203796387,5077.7
582.485107422,4739.825
582.766418457,4405.45
583.047790527,4276.45
583.329040527,4182.475
583.610290527,4050.2
583.891540527,4145.925
584.172790527,4430.825
584.453918457,4462.575
584.735107422,4526.65
585.016235352,4912.025
585.297363281,4877.6
585.578552246,4696.9
585.859619141,4647.1
586.140625,4454.45
586.421630859,4334.325
586.702697754,4376.6
586.983642578,4578.425
587.264648438,4732.0
587.545654297,4690.55
587.826477051,4643.0
588.107421875,4501.6
588.388305664,4517.025
588.669189453,4616.225
588.950012207,4474.825
589.230834961,4412.85
589.511657715,4485.05
589.792358398,4559.65
590.073120117,4546.625
590.353881836,4549.7
590.63458252,4570.175
590.915283203,4533.325
591.195922852,4527.65
591.4765625,4568.075
591.757202148,4606.15
592.037780762,4609.225
592.31829834,4615.05
592.598937988,4806.675
592.879394531,4959.15
593.159912109,4869.275
593.440429688,4830.975
593.720825195,4816.75
594.001281738,4802.725
594.281677246,4706.65
594.562072754,4753.475
594.842407227,4841.325
595.122802734,4873.225
595.403137207,4876.425
595.683410645,4834.625
595.963623047,4828.875
596.243896484,4779.275
596.524169922,4788.6
596.804382324,4808.775
597.084533691,4850.95
597.364746094,4875.15
597.644836426,4902.35
597.924987793,4889.725
598.205078125,4857.275
598.485107422,4874.425
598.765197754,4986.075
599.045227051,5064.725
599.325195312,4963.825
599.605224609,4915.75
599.885192871,4977.05
600.165100098,5021.8
600.445007324,4966.375
600.724914551,4960.425
601.004760742,4972.05
601.284667969,5003.275
601.56451416,4987.65
601.844238281,4991.6
602.124084473,4971.3
602.403808594,5001.5
602.683532715,5019.475
602.963256836,5015.25
603.242919922,5063.025
603.522583008,5117.0
603.802246094,5082.225
604.081848145,5058.825
604.36138916,5015.375
604.641052246,5072.525
604.920532227,5049.05
605.200073242,5083.5
605.479614258,5117.6
605.759094238,5140.325
606.038574219,5142.825
606.317932129,5092.025
606.597412109,5089.675
606.87677002,5091.575
607.15612793,5130.8
607.435546875,5105.4
607.714782715,5138.825
607.99407959,5101.2
608.273376465,5092.575
608.552612305,5120.55
608.831848145,5142.225
609.111083984,5117.45
609.390258789,5097.675
609.669433594,5107.175
609.948608398,5184.775
610.227722168,5159.1
610.506713867,5098.475
610.785888672,5119.3
611.064880371,5110.325
611.34387207,5135.375
611.622924805,5154.825
611.901916504,5145.375
612.180847168,5087.925
612.459777832,5085.525
612.738647461,5097.15
613.01751709,5079.05
613.296447754,5037.575
613.575317383,5018.625
613.854064941,4952.35
614.132873535,4892.9
614.411621094,4827.475
614.690368652,4804.025
614.969177246,4754.475
615.247802734,4688.025
615.526489258,4664.725
615.805175781,4563.6
616.08380127,4458.025
616.362365723,4389.125
616.640991211,4350.15
616.919555664,4297.625
617.198059082,4424.125
617.4765625,4659.15
617.755126953,4811.725
618.033569336,4825.55
618.311950684,4810.0
618.590454102,4824.4
618.868774414,4797.075
619.147155762,4807.125
619.425598145,4792.6
619.703857422,4790.675
619.982177734,4819.75
620.260498047,4786.025
620.538757324,4777.95
620.816955566,4766.075
621.095214844,4716.575
621.373413086,4738.95
621.651550293,4803.15
621.929748535,4836.275
622.207824707,4809.7
622.485900879,4824.3
622.764038086,4825.3
623.042053223,4867.2
623.320007324,4883.25
623.598083496,4870.6
623.876037598,4861.85
624.153991699,4883.925
624.432006836,4907.95
624.709838867,4922.025
624.987731934,4892.425
625.265563965,4895.675
625.543395996,4900.35
625.821228027,4962.75
626.098999023,4961.275
626.376831055,4996.075
626.654541016,5004.775
626.932250977,5040.425
627.209960938,5098.2
627.487670898,5121.55
627.765319824,5133.175
628.04296875,5119.1
628.320495605,5132.1
628.598083496,5144.15
628.875671387,5172.225
629.153259277,5196.15
629.430725098,5245.05
629.708251953,5249.85
629.985656738,5263.05
630.263122559,5303.625
630.540588379,5328.45
630.817932129,5347.375
631.095275879,5377.1
631.372680664,5421.075
631.649963379,5464.075
631.927246094,5509.125
632.204589844,5525.7
632.481811523,5569.225
632.759033203,5687.875
633.036254883,5674.55
633.313415527,5746.725
633.590576172,5821.575
633.867736816,5895.55
634.144836426,5958.45
634.421875,6025.35
634.698913574,6058.175
634.976013184,6118.025
635.252990723,6176.5
635.529968262,6210.8
635.807006836,6289.975
636.08392334,6268.5
636.360839844,6176.475
636.637756348,6087.35
636.914611816,6067.325
637.191467285,6037.075
637.468261719,6110.325
637.745056152,6082.95
638.021789551,6131.125
638.298583984,6119.075
638.575317383,6181.15
638.851989746,6166.8
639.12878418,6160.05
639.405395508,6155.35
639.682006836,6177.0
639.958618164,6201.85
640.235229492,6193.875
640.511779785,6212.425
640.788330078,6203.675
641.064880371,6207.425
641.341308594,6168.15
641.617797852,6199.125
641.894226074,6193.85
642.170654297,6236.2
642.44708252,6231.125
642.723388672,6210.575
642.999755859,6207.925
643.276123047,6177.75
643.552429199,6177.475
643.828674316,6210.675
644.104919434,6175.1
644.381164551,6149.85
644.657348633,6194.95
644.933532715,6136.625
645.209716797,6147.125
645.485839844,6135.7
645.761901855,6156.55
646.038024902,6115.65
646.314086914,6153.575
646.590087891,6139.325
646.866149902,6172.625
647.142150879,6147.8
647.41809082,6106.575
647.694030762,6098.5
647.969970703,6095.075
648.245788574,6115.9
648.521728516,6127.85
648.797546387,6114.025
649.073303223,6127.425
649.349182129,6093.975
649.624938965,6104.95
649.900634766,6104.25
650.176391602,6088.3
650.452087402,6077.125
650.727783203,6092.275
651.003479004,6080.175
651.279052734,6063.925
651.554626465,6063.15
651.83026123,6058.925
652.105773926,6086.925
652.381286621,6042.975
652.656860352,6072.325
652.932312012,6078.525
653.207763672,6074.875
653.483215332,6105.15
653.758605957,6089.425
654.033935547,6088.575
654.309326172,6077.475
654.584716797,6103.05
654.859985352,6094.45
655.135253906,6113.575
655.410583496,6128.625
655.685791016,7045.425
655.9609375,11000.575
656.236206055,10798.425
656.511291504,7148.675
656.786437988,6273.375
657.061645508,6173.875
657.336669922,6141.75
657.611694336,6173.475
657.886779785,6212.7
658.161804199,6217.65
658.436828613,6184.825
658.711791992,6181.1
658.986755371,6193.3
659.261657715,6218.65
659.536621094,6238.775
659.811401367,6213.65
660.086303711,6251.3
660.36114502,6225.325
660.635864258,6257.875
660.910644531,6290.175
661.185424805,6253.8
661.460205078,6276.525
661.734863281,6276.625
662.009521484,6268.45
662.284179688,6284.8
662.558776855,6315.1
662.833435059,6344.5
663.108032227,6355.1
663.382568359,6329.125
663.657043457,6399.2
663.93157959,6425.875
664.206054688,6379.35
664.48046875,6428.2
664.755004883,6425.55
665.02935791,6452.35
665.303710938,6454.075
665.578125,6462.675
665.852416992,6470.85
666.126708984,6461.5
666.401062012,6478.9
666.675292969,6512.775
666.949462891,6504.025
667.223754883,6499.925
667.497924805,6518.6
667.772094727,6552.85
668.046264648,6515.1
668.3203125,6582.825
668.594421387,6574.625
668.868469238,6612.8
669.14251709,6588.0
669.416503906,6612.575
669.690551758,6629.25
669.964477539,6634.325
670.23840332,6635.175
670.512329102,6616.4
670.786254883,6609.675
671.060058594,6682.65
671.333984375,6676.075
671.607788086,6702.125
671.881530762,6697.65
672.155334473,6721.675
672.429077148,6714.475
672.702758789,6729.925
672.97644043,6713.375
673.25012207,6702.625
673.523742676,6701.975
673.797302246,6707.125
674.070922852,6760.775
674.344482422,6779.475
674.618041992,6744.225
674.891601562,6758.35
675.165100098,6786.875
675.438476562,6758.25
675.711975098,6775.7
675.985412598,6753.675
676.258789062,6756.1
676.532165527,6783.8
676.805480957,6756.5
677.078796387,6798.475
677.352111816,6804.675
677.625366211,6791.65
677.898620605,6804.1
678.171875,6830.75
678.445007324,6797.9
678.718200684,6860.175
678.991394043,6812.15
679.264404297,6832.85
679.537536621,6857.5
679.81060791,6872.75
680.083679199,6863.45
680.356689453,6860.35
680.629699707,6868.4
680.902648926,6842.975
681.175598145,6897.75
681.448547363,6911.675
681.721435547,6864.8
681.99420166,6875.9
682.267150879,6859.6
682.539916992,6909.25
682.812744141,6916.775
683.085510254,6869.875
683.358215332,6897.575
683.63092041,6858.55
683.903625488,6876.025
684.176330566,6854.725
684.448913574,6854.3
684.721557617,6837.325
684.99420166,6873.15
685.266662598,6878.4
685.539245605,6875.625
685.811767578,6908.5
686.084289551,6903.65
686.356689453,6913.7
686.629150391,6945.5
686.901550293,6954.225
687.17401123,6945.0
687.446350098,6952.625
687.718688965,6961.625
687.990966797,6993.75
688.263305664,7003.375
688.535522461,6962.1
688.807739258,6950.475
689.079956055,6998.325
689.352172852,7009.025
689.624328613,7006.375
689.896484375,7023.4
690.168518066,6998.15
690.440612793,7055.35
690.71270752,7060.2
690.984741211,7041.325
691.256713867,7081.05
691.528747559,7039.6
691.800720215,7058.25
692.072631836,7062.05
692.344543457,7070.675
692.616394043,7076.0
692.888244629,7083.425
693.160095215,7115.15
693.431945801,7122.425
693.703674316,7088.2
693.975463867,7060.8
694.247131348,7122.85
694.518859863,7078.375
694.790588379,7128.175
695.062255859,7132.6
695.33380127,7072.825
695.60546875,7075.0
695.87701416,7118.475
696.148498535,7106.725
696.42010498,7127.975
696.691589355,7127.0
696.96307373,7132.125
697.234558105,7149.0
697.50592041,7148.4
697.777282715,7128.375
698.048706055,7112.65
698.320068359,7173.425
698.591308594,7141.45
698.862670898,7123.725
699.133972168,7160.875
699.405151367,7129.575
699.676391602,7165.725
699.947570801,7136.55
700.21875,7153.675
700.489868164,7139.475
700.761047363,7114.825
701.032104492,7158.5
701.303100586,7120.35
701.57421875,7167.325
701.845214844,7132.675
702.116149902,7145.75
702.387207031,7157.675
702.65814209,7150.375
702.928955078,7145.2
703.199951172,7128.425
703.47076416,7110.65
703.741577148,7085.3
704.012451172,7135.8
704.28314209,7117.075
704.553955078,7070.525
704.824707031,7119.925
705.095397949,7146.45
705.366027832,7101.575
705.63671875,7110.85
705.907348633,7073.675
706.17791748,7097.15
706.448486328,7085.45
706.719055176,7112.575
706.989562988,7100.875
707.260131836,7106.125
707.530517578,7086.9
707.800964355,7091.875
708.071411133,7065.6
708.341796875,7041.65
708.612182617,7042.85
708.882446289,7008.6
709.152893066,7019.85
709.423156738,7018.825
709.693359375,6992.7
709.963623047,7000.325
710.233825684,7010.075
710.503967285,6983.225
710.774169922,6978.525
711.044311523,6969.225
711.31439209,6938.1
711.584533691,6966.225
711.854553223,6950.075
712.124572754,6929.475
712.39465332,6869.95
712.664611816,6911.3
712.934509277,6936.525
713.204467773,6898.975
713.474365234,6919.025
713.74420166,6899.7
714.014099121,6914.775
714.283874512,6884.95
714.553710938,6900.775
714.823486328,6880.8
715.093200684,6837.45
715.362915039,6851.825
715.632629395,6816.15
715.902282715,6801.775
716.171875,6807.2
716.441589355,6778.075
716.711181641,6758.6
716.980712891,6761.5
717.250244141,6750.225
717.519775391,6757.05
717.78918457,6738.0
718.058654785,6793.125
718.328125,6772.175
718.597473145,6734.175
718.866882324,6725.15
719.136230469,6705.475
719.405578613,6700.425
719.674865723,6733.975
719.944152832,6709.65
720.213439941,6664.725
720.48260498,6660.525
720.75177002,6657.375
721.020996094,6644.8
721.290100098,6644.35
721.559204102,6632.85
721.828308105,6583.875
722.097351074,6606.025
722.366455078,6569.125
722.635437012,6575.425
722.904418945,6510.25
723.173400879,6551.8
723.442321777,6521.0
723.711181641,6494.6
723.980102539,6504.65
724.248962402,6489.925
724.51776123,6489.425
724.786560059,6482.925
725.055358887,6474.6
725.324035645,6432.95
725.592834473,6440.775
725.86151123,6434.375
726.130187988,6413.45
726.398803711,6363.25
726.667419434,6371.475
726.935974121,6359.825
727.204528809,6286.725
727.473083496,6294.825
727.741638184,6269.975
728.010070801,6236.125
728.278564453,6234.225
728.546936035,6213.65
728.815368652,6162.975
729.08380127,6123.575
729.352111816,6075.225
729.620361328,6028.1
729.88873291,6040.45
730.156982422,6054.025
730.425231934,6051.425
730.693481445,6018.625
730.961669922,6085.775
731.229797363,6064.375
731.49798584,6074.6
731.766113281,6112.925
732.034118652,6127.9
732.302246094,6157.175
732.570251465,6172.9
732.838256836,6195.875
733.106262207,6244.175
733.374145508,6223.05
733.642089844,6244.5
733.909973145,6273.7
734.177856445,6280.65
734.445678711,6352.625
734.713562012,6414.65
734.981323242,6382.4
735.249084473,6420.175
735.516845703,6524.025
735.784545898,6556.475
736.052185059,6544.7
736.319885254,6616.125
736.587524414,6662.875
736.855102539,6679.9
737.122619629,6730.4
737.390197754,6744.975
737.657714844,6819.1
737.925170898,6849.825
738.192749023,6892.575
738.460144043,6935.175
738.727539062,6946.525
738.994995117,7016.9
739.262329102,7040.0
739.529663086,7097.425
739.79699707,7082.475
740.06427002,7116.15
740.331481934,7178.325
740.598754883,7177.0
740.865905762,7187.75
741.133056641,7279.25
741.40032959,7255.125
741.667358398,7327.525
741.934448242,7339.175
742.201599121,7352.55
742.468566895,7411.15
742.735534668,7425.8
743.002563477,7440.825
743.26953125,7403.25
743.536437988,7475.05
743.803405762,7496.475
744.0703125,7454.75
744.337097168,7501.775
744.604003906,7454.2
744.870727539,7493.725
745.137512207,7493.475
745.40423584,7530.95
745.670959473,7445.575
745.93762207,7470.1
746.204284668,7479.95
746.470947266,7449.475
746.737548828,7429.7
747.004089355,7442.025
747.270751953,7441.775
747.53717041,7475.975
747.803710938,7386.575
748.070251465,7394.575
748.336608887,7412.775
748.603027344,7359.675
748.869445801,7350.525
749.135803223,7332.65
749.402099609,7353.3
749.668457031,7329.5
749.934753418,7281.95
750.20098877,7253.225
750.467224121,7290.125
750.733459473,7246.225
750.999572754,7217.65
751.26574707,7167.25
751.531860352,7155.75
751.797912598,7134.675
752.064025879,7092.4
752.330078125,7093.1
752.596069336,7048.9
752.862060547,7047.325
753.127990723,7012.85
753.393920898,6958.525
753.659912109,6948.85
753.925720215,6943.8
754.19152832,6903.45
754.457397461,6880.0
754.723144531,6857.1
754.988952637,6812.175
755.254699707,6818.725
755.520385742,6834.675
755.786071777,6809.5
756.051696777,6774.225
756.317382812,6726.875
756.582946777,6710.975
756.848510742,6701.325
757.114074707,6663.275
757.379577637,6654.425
757.645080566,6682.275
757.910583496,6637.95
758.175964355,6558.65
758.441345215,6560.425
758.706848145,6484.475
758.972106934,6475.05
759.237426758,6487.175
759.502807617,6512.525
759.768005371,6481.95
760.03326416,6441.025
760.298522949,6382.95
760.563659668,6419.85
760.828857422,6363.575
761.093994141,6366.575
761.359130859,6358.825
761.624206543,6343.025
761.889282227,6324.95
762.15423584,6286.0
762.419250488,6247.025
762.684265137,6220.5
762.949157715,6196.55
763.214050293,6168.65
763.479003906,6139.25
763.743835449,6131.175
764.008666992,6095.475
764.2734375,6105.0
764.538208008,6111.275
764.802978516,6141.1
765.067687988,6092.45
765.332397461,6101.5
765.597045898,6052.1
765.861694336,6052.25
766.126342773,6014.225
766.390930176,5991.1
766.655395508,5966.9
766.920043945,5938.975
767.184509277,5928.775
767.448974609,5912.25
767.713439941,5901.525
767.977783203,5872.675
768.2421875,5902.1
768.506591797,5855.5
768.770874023,5904.15
769.03515625,5872.225
769.299499512,5852.3
769.563720703,5866.025
769.827941895,5806.075
770.092163086,5805.6
770.356323242,5781.65
770.620483398,5805.575
770.88458252,5784.6
771.148681641,5797.925
771.412719727,5773.45
771.676757812,5773.1
771.940734863,5733.625
772.204711914,5745.7
772.468688965,5730.3
772.73260498,5716.8
772.996459961,5692.925
773.260314941,5070.9
773.524169922,695.95
773.787963867,140.1
774.051696777,125.2
774.315551758,120.025
774.579223633,121.025
774.842895508,120.475
775.106567383,123.75
775.370239258,115.675
775.633789062,122.95
775.897399902,126.55
776.160949707,119.125
776.424499512,120.8
776.687988281,124.55
776.951477051,125.825
777.214904785,122.175
777.47833252,122.25
