191.299911499,102.3
191.603515625,102.05
191.907119751,95.225
192.210693359,105.175
192.514251709,96.05
192.817810059,102.325
193.121368408,101.8
193.42489624,106.725
193.728408813,98.35
194.031936646,97.7
194.33543396,90.65
194.638916016,110.425
194.94241333,96.0
195.245880127,94.825
195.549331665,96.475
195.852767944,99.4
196.156204224,198.3
196.459625244,192.825
196.763015747,191.2
197.066436768,200.875
197.369812012,194.3
197.673187256,196.175
197.9765625,190.85
198.279922485,195.55
198.583251953,191.825
198.886581421,194.025
199.18989563,203.55
199.493209839,197.85
199.79649353,189.125
200.09979248,202.325
200.403076172,195.225
200.706314087,197.2
201.009567261,194.825
201.312820435,198.075
201.616027832,190.05
201.919235229,183.725
202.222457886,189.25
202.525634766,194.9
202.828826904,181.475
203.132003784,183.45
203.435150146,185.75
203.738296509,188.725
204.041412354,186.475
204.344558716,191.175
204.647659302,193.625
204.950759888,192.05
205.253845215,190.5
205.556930542,185.325
205.859985352,187.3
206.163024902,188.725
206.466079712,191.85
206.769104004,201.175
207.072113037,190.075
207.375137329,192.625
207.678131104,192.75
207.981109619,196.65
208.284088135,189.35
208.587036133,194.35
208.889984131,194.225
209.19291687,198.7
209.495849609,198.7
209.798751831,194.4
210.101654053,197.1
210.404556274,200.5
210.707427979,195.825
211.010269165,208.525
211.31312561,202.7
211.615982056,202.075
211.918807983,204.975
212.221618652,201.9
212.524429321,198.8
212.827224731,204.925
213.130004883,204.625
213.432769775,209.875
213.735534668,205.4
214.038269043,212.875
214.341003418,211.825
214.643737793,214.525
214.946456909,219.825
215.249145508,215.4
215.551834106,219.275
215.854507446,222.1
216.157165527,222.75
216.45980835,220.125
216.762451172,225.9
217.065078735,229.65
217.36769104,224.675
217.670303345,231.675
217.972885132,232.8
218.275466919,234.5
218.578048706,229.7
218.880599976,240.45
219.183120728,237.675
219.485656738,242.9
219.788192749,247.475
220.090682983,260.075
220.393188477,277.375
220.695663452,304.9
220.998138428,327.55
221.300582886,369.075
221.603042603,395.45
221.905487061,441.375
222.207901001,500.9
222.510299683,569.625
222.812728882,643.05
223.115097046,726.85
223.41746521,822.55
223.719848633,917.1
224.022171021,1014.3
224.324508667,1124.525
224.626846313,1243.5
224.929168701,1364.825
225.231460571,1505.875
225.533737183,1623.9
225.836013794,1754.175
226.138290405,1880.6
226.440536499,2000.025
226.742767334,2119.55
227.044998169,2226.075
227.347213745,2367.375
227.649429321,2455.425
227.951629639,2564.85
228.253799438,2671.05
228.555953979,2775.625
228.858123779,2868.225
229.160263062,2951.975
229.462371826,3038.975
229.764511108,3130.2
230.066619873,3172.125
230.36869812,3266.45
230.670776367,3310.75
230.972854614,3393.525
231.274902344,3485.5
231.576950073,3581.875
231.878967285,3633.85
232.180999756,3760.2
232.48298645,3834.5
232.784988403,3900.475
233.086975098,4007.075
233.388946533,4064.125
233.69090271,4143.475
233.992858887,4226.0
234.294769287,4296.075
234.596694946,4365.025
234.898605347,4455.525
235.200500488,4485.55
235.502380371,4554.325
235.804244995,4593.375
236.106109619,4650.1
236.407958984,4706.925
236.709777832,4764.4
237.011581421,4786.125
237.313400269,4799.1
237.615203857,4836.0
237.916976929,4910.85
238.21875,4924.875
238.520507812,4969.875
238.822250366,5003.55
239.12399292,5018.175
239.425704956,5063.775
239.727401733,5064.575
240.02911377,5137.975
240.330780029,5143.4
240.632446289,5148.325
240.93409729,5198.15
241.23576355,5226.75
241.537384033,5268.675
241.839004517,5325.625
242.140594482,5351.25
242.442199707,5392.4
242.743774414,5413.4
243.045333862,5484.55
243.346923828,5504.175
243.648452759,5564.875
243.949966431,5574.275
244.251495361,5623.6
244.552993774,5670.325
244.854492188,5652.475
245.155975342,5688.875
245.457443237,5715.2
245.758880615,5705.2
246.060333252,5743.6
246.36177063,5732.075
246.66317749,5731.75
246.964569092,5764.025
247.265945435,5755.9
247.567337036,5781.625
247.86869812,5829.65
248.170059204,5835.75
248.471389771,5855.725
248.772705078,5906.65
249.074035645,5971.775
249.375335693,5991.575
249.676620483,6050.35
249.977890015,6119.475
250.279159546,6192.725
250.58039856,6292.225
250.881637573,6317.075
251.182876587,6420.0
251.484069824,6521.15
251.785263062,6566.825
252.086456299,6694.575
252.387619019,6750.825
252.688781738,6833.125
252.989929199,6924.625
253.291061401,7030.45
253.592178345,7115.825
253.893280029,7200.025
254.194366455,7253.325
254.49546814,7306.675
254.796524048,7367.95
255.097579956,7459.75
255.398620605,7458.15
255.699645996,7532.025
256.000640869,7548.6
256.30166626,7599.05
256.602661133,7648.25
256.903656006,7599.0
257.204589844,7613.175
257.505523682,7621.1
257.80645752,7641.475
258.107391357,7580.125
258.408294678,7599.95
258.709228516,7525.975
259.010070801,7492.325
259.310943604,7473.1
259.611846924,7395.65
259.912658691,7336.475
260.213500977,7279.15
260.514343262,7237.85
260.815124512,7146.575
261.115936279,7090.95
261.416717529,7080.775
261.717468262,7006.375
262.018218994,6955.225
262.318969727,6922.925
262.619689941,6954.5
262.920410156,6975.2
263.221130371,7017.025
263.521789551,7047.9
263.822479248,7058.225
264.123138428,7129.65
264.42376709,7106.875
264.72442627,7085.7
265.025054932,7075.15
265.325622559,7068.6
265.626251221,7049.4
265.926818848,7005.8
266.227386475,6941.575
266.527954102,6885.65
266.828460693,6877.15
267.12902832,6735.95
267.429534912,6696.7
267.730010986,6623.55
268.030517578,6536.025
268.330993652,6482.75
268.631439209,6429.975
268.931915283,6368.0
269.232299805,6331.875
269.532745361,6264.525
269.8331604,6213.25
270.133544922,6170.9
270.433929443,6151.775
270.734313965,6100.625
271.034637451,6116.875
271.334991455,6058.325
271.635314941,6094.0
271.935638428,6091.025
272.235931396,6108.75
272.536254883,6156.35
272.836486816,6206.075
273.136749268,6236.65
273.437011719,6317.8
273.737213135,6404.725
274.037445068,6498.05
274.337677002,6570.3
274.6378479,6649.225
274.938049316,6759.25
275.238220215,6830.325
275.538360596,6952.725
275.838500977,7001.075
276.138641357,7146.65
276.438751221,7156.9
276.738830566,7261.775
277.03894043,7307.5
277.338989258,7442.625
277.639038086,7517.575
277.939056396,7529.9
278.239105225,7596.075
278.539093018,7653.05
278.839141846,7708.175
279.139129639,7757.15
279.439086914,7832.4
279.739044189,7855.45
280.039001465,7943.25
280.338928223,7966.3
280.63885498,8008.25
280.938781738,8036.75
281.238647461,8040.1
281.538513184,8058.65
281.838409424,8078.975
282.138244629,8119.3
282.438079834,8113.075
282.737945557,8141.225
283.037719727,8144.175
283.337524414,8165.15
283.637298584,8151.3
283.937072754,8171.125
284.236816406,8158.65
284.536560059,8137.4
284.836303711,8153.5
285.136016846,8181.375
285.43572998,8191.125
285.735412598,8155.175
286.035064697,8152.4
286.334747314,8163.725
286.634368896,8152.0
286.933990479,8108.2
287.233642578,8042.55
287.533203125,8045.5
287.832824707,7938.25
288.132385254,7878.6
288.431945801,7719.275
288.731506348,7598.8
289.031036377,7415.375
289.330566406,7279.4
289.630065918,7268.025
289.92956543,7221.475
290.229034424,7321.775
290.528503418,7462.85
290.827941895,7638.6
291.127380371,7784.2
291.42678833,7866.575
291.726226807,7996.575
292.025604248,8037.525
292.324981689,8063.825
292.624359131,8069.525
292.923736572,8077.75
293.223052979,8073.625
293.522369385,8080.55
293.821685791,8021.375
294.12097168,8012.85
294.420257568,7956.6
294.719543457,7942.85
295.018768311,7929.925
295.318023682,7877.95
295.617248535,7797.875
295.916442871,7722.725
296.215667725,7641.425
296.514862061,7539.6
296.813995361,7304.225
297.11315918,7104.975
297.412322998,6973.375
297.711425781,6945.475
298.010559082,7096.775
298.309631348,7269.325
298.608734131,7513.725
298.907806396,7673.05
299.206848145,7815.5
299.505889893,7901.525
299.804901123,7991.95
300.103912354,8063.525
300.402954102,8125.525
300.701904297,8194.075
301.00088501,8243.45
301.299835205,8330.625
301.5987854,8331.275
301.897735596,8411.1
302.196624756,8464.075
302.495513916,8563.5
302.794403076,8545.425
303.093292236,8601.675
303.392120361,8703.6
303.690979004,8741.55
303.989837646,8784.475
304.288604736,8838.85
304.587402344,8841.4
304.886199951,8905.0
305.184967041,8884.45
305.483734131,8950.325
305.782501221,8987.725
306.081176758,9001.85
306.37991333,9009.8
306.678619385,9028.725
306.977294922,9066.25
307.275970459,9040.025
307.574645996,9087.825
307.873260498,9050.95
308.171875,9068.55
308.470489502,9047.65
308.769104004,8973.35
309.067687988,8986.425
309.366241455,9003.575
309.664794922,8946.95
309.963348389,8955.5
310.261871338,8952.675
310.560394287,8959.95
310.858856201,8968.55
311.157348633,9004.8
311.455810547,9006.075
311.754272461,9036.2
312.052703857,9086.425
312.351135254,9136.875
312.649536133,9111.9
312.947937012,9085.025
313.246307373,9103.8
313.544647217,9107.1
313.843017578,9031.225
314.141387939,9018.6
314.439697266,9072.0
314.738006592,8989.125
315.036315918,8913.125
315.334564209,8821.85
315.6328125,8790.825
315.931091309,8702.625
316.229309082,8605.05
316.527526855,8493.375
316.825744629,8438.75
317.123901367,8344.1
317.422088623,8279.65
317.720245361,8272.425
318.0184021,8302.775
318.316497803,8328.3
318.614654541,8396.025
318.912750244,8448.95
319.21081543,8438.1
319.50894165,8461.6
319.806945801,8484.325
320.104980469,8460.3
320.403045654,8457.55
320.701049805,8429.35
320.999023438,8421.8
321.297027588,8367.9
321.595001221,8343.025
321.892913818,8324.8
322.190887451,8231.35
322.488830566,8183.9
322.786712646,8142.2
323.084625244,8071.5
323.382507324,8025.375
323.680358887,7946.5
323.978210449,7884.675
324.276062012,7833.875
324.573852539,7745.225
324.871643066,7716.45
325.169464111,7655.35
325.467224121,7600.575
325.764984131,7498.6
326.062744141,7445.875
326.360473633,7355.425
326.658203125,7322.5
326.955871582,7227.45
327.253570557,7160.875
327.551239014,7098.6
327.848907471,7037.3
328.146514893,6979.175
328.444152832,6902.25
328.741790771,6857.3
329.039367676,6813.325
329.336914062,6739.4
329.634521484,6665.5
329.932067871,6637.725
330.229553223,6556.45
330.527160645,6506.875
330.824615479,6467.75
331.12210083,6391.225
331.419586182,6244.225
331.717041016,6212.975
332.014465332,6122.2
332.311920166,6087.4
332.609313965,6040.575
332.906707764,6040.8
333.204101562,6021.25
333.501495361,6049.975
333.798828125,6070.8
334.096160889,6099.15
334.39352417,6152.95
334.690795898,6220.85
334.988098145,6261.5
335.285400391,6311.35
335.582641602,6311.65
335.879882812,6359.3
336.177124023,6363.95
336.474334717,6434.35
336.77154541,6413.6
337.068725586,6443.625
337.365905762,6470.675
337.66305542,6459.125
337.960205078,6488.1
338.257324219,6502.425
338.554443359,6500.875
338.8515625,6546.725
339.148590088,6552.3
339.445648193,6530.65
339.742736816,6505.05
340.039764404,6525.5
340.336761475,6430.7
340.63381958,6408.7
340.930755615,6380.925
341.227722168,6305.6
341.524688721,6219.4
341.821624756,6171.15
342.118560791,6190.65
342.415496826,6277.1
342.712402344,6419.05
343.009246826,6555.45
343.306121826,6699.3
343.602966309,6720.675
343.899810791,6803.575
344.196624756,6893.825
344.493438721,6908.075
344.79019165,6958.25
345.086975098,7013.7
345.383758545,7044.925
345.680480957,7032.425
345.977203369,7056.875
346.273956299,7105.075
346.570617676,7095.9
346.86730957,7121.5
347.163970947,7076.0
347.460601807,7137.625
347.757232666,7119.25
348.053894043,7103.95
348.350463867,7041.175
348.647064209,7018.85
348.943634033,7018.55
349.24017334,7029.4
349.536712646,6985.95
349.833251953,6999.25
350.129760742,6963.525
350.426208496,6950.725
350.722747803,6917.275
351.019195557,6887.1
351.315612793,6859.825
351.612060547,6829.725
351.908508301,6774.75
352.204864502,6725.775
352.501281738,6677.025
352.797637939,6608.95
353.093963623,6525.675
353.390319824,6473.225
353.686645508,6401.975
353.982940674,6328.975
354.27923584,6274.8
354.575531006,6208.3
354.871765137,6224.7
355.167999268,6178.5
355.464233398,6188.25
355.760437012,6207.775
356.056640625,6197.6
356.352813721,6209.85
356.648956299,6211.775
356.945129395,6211.825
357.241271973,6203.725
357.537384033,6239.725
357.833496094,6176.7
358.129577637,6172.55
358.425628662,6142.25
358.721679688,6121.9
359.017730713,6115.6
359.313720703,6040.0
359.609710693,6015.95
359.905761719,5973.8
360.201721191,5942.025
360.497650146,5868.1
360.793609619,5832.525
361.089538574,5768.275
361.385437012,5700.075
361.681365967,5641.0
361.977233887,5608.4
362.273071289,5536.575
362.568908691,5442.2
362.864746094,5302.75
363.160552979,5185.15
363.456359863,5013.425
363.752166748,4878.575
364.047912598,4775.85
364.343658447,4772.925
364.639434814,4791.225
364.935119629,4831.025
365.230834961,4889.7
365.526550293,4914.1
365.822174072,4938.45
366.117858887,4952.15
366.413482666,5008.5
366.709075928,5014.325
367.004730225,4915.8
367.300292969,4909.925
367.595855713,4970.8
367.891448975,4852.225
368.186981201,4766.475
368.482513428,4729.825
368.778015137,4719.05
369.073547363,4657.1
369.36895752,4672.75
369.664428711,4583.875
369.95993042,4477.225
370.255310059,4407.875
370.550720215,4401.05
370.846160889,4344.9
371.14151001,4318.6
371.436859131,4288.125
371.73223877,4274.675
372.027557373,4244.825
372.322875977,4194.425
372.618164062,4151.4
372.913482666,4110.05
373.208709717,4093.825
373.503967285,4023.1
373.799194336,3992.425
374.094421387,3983.225
374.389648438,3967.775
374.684844971,3965.05
374.979980469,3994.375
375.275146484,4018.175
375.570281982,4047.575
375.865386963,4036.875
376.160522461,3975.775
376.455596924,3999.925
376.750640869,4077.525
377.045715332,4095.725
377.340759277,4142.625
377.635772705,4188.925
377.93081665,4232.975
378.225769043,4314.675
378.520751953,4349.275
378.815734863,4306.85
379.110656738,4479.975
379.405548096,4655.825
379.700500488,4503.45
379.995391846,4284.55
380.290252686,4332.425
380.585083008,4437.8
380.879974365,4502.175
381.17477417,4379.875
381.469543457,4329.8
381.764404297,4301.4
382.059143066,4346.375
382.353912354,4451.7
382.648651123,4541.6
382.943389893,4509.2
383.238067627,4340.3
383.532775879,4347.25
383.827484131,4271.55
384.12210083,4271.7
384.416778564,4225.05
384.711425781,4132.2
385.006011963,4152.6
385.300628662,4143.625
385.595184326,4217.7
385.88973999,4303.45
386.184295654,4409.15
386.478820801,4511.775
386.77331543,4571.4
387.067840576,4690.2
387.362335205,4780.875
387.656768799,4855.35
387.951202393,4898.0
388.245635986,4970.625
388.540039062,5055.5
388.834472656,5112.5
389.128875732,4999.3
389.423187256,4773.875
389.717559814,4715.8
390.011871338,4832.45
390.306182861,4855.4
390.600463867,4860.05
390.894775391,4942.4
391.189025879,5010.7
391.48324585,4960.7
391.777526855,5035.475
392.071685791,5245.05
392.365875244,5345.95
392.660064697,5410.125
392.95425415,5764.025
393.248382568,5712.7
393.542510986,5228.65
393.836608887,5066.7
394.130706787,5061.45
394.424804688,5002.9
394.71887207,5140.65
395.012878418,5112.15
395.306915283,4999.55
395.600921631,4933.175
395.894927979,4894.825
396.188903809,4942.45
396.482879639,4954.3
396.776794434,5159.325
397.070739746,5134.65
397.364654541,5153.35
397.658538818,5546.05
397.952423096,5558.95
398.246307373,5520.775
398.540100098,6060.2
398.833953857,5943.8
399.127746582,5445.05
399.421508789,5442.475
399.715301514,5394.55
400.009063721,5302.875
400.30279541,5148.475
400.596496582,5064.8
400.890258789,5218.75
401.183929443,5296.1
401.47756958,5210.05
401.771240234,4967.5
402.064880371,4972.625
402.35848999,5004.875
402.652130127,4904.9
402.945678711,4977.775
403.239257812,4934.45
403.532775879,4876.5
403.82635498,4916.45
404.119842529,4850.425
404.413360596,4813.25
404.706848145,4888.325
405.000274658,4807.7
405.293762207,4901.05
405.587188721,4968.475
405.880584717,4801.925
406.17401123,4592.95
406.467407227,4404.725
406.760742188,4414.2
407.054107666,4429.85
407.347442627,4361.325
407.640716553,4349.575
407.934051514,4412.1
408.227325439,4498.9
408.520568848,4681.825
408.813842773,4785.475
409.107086182,4583.2
409.400238037,4539.35
409.693450928,4463.775
409.986633301,4575.4
410.279754639,4486.325
410.572875977,4206.275
410.86605835,4131.85
411.159118652,4144.225
411.452209473,4168.325
411.745330811,4012.25
412.038360596,3929.9
412.331390381,3972.525
412.624420166,4011.7
412.917388916,3923.1
413.210388184,3734.825
413.503387451,3710.35
413.796295166,3580.3
414.089233398,3430.225
414.382141113,3344.9
414.675048828,3340.525
414.967926025,3353.4
415.260803223,3319.375
415.55368042,3319.75
415.846466064,3288.075
416.139282227,3370.35
416.432098389,3487.15
416.724853516,3485.025
417.017608643,3431.55
417.31036377,3456.3
417.603088379,3577.75
417.895782471,3534.7
418.188476562,3500.8
418.481140137,3578.075
418.773803711,3646.4
419.066436768,3611.4
419.359039307,3689.75
419.651641846,3688.95
419.944244385,3678.85
420.236816406,3649.3
420.529327393,3869.75
420.821899414,3941.9
421.114379883,3852.975
421.406860352,4128.775
421.699371338,4355.525
421.991821289,4283.375
422.284240723,4090.225
422.576721191,3937.775
422.869110107,3830.2
423.161468506,3781.2
423.453857422,3817.1
423.74621582,3692.65
424.038543701,3548.175
424.330871582,3522.25
424.623168945,3465.5
424.915435791,3584.175
425.207702637,3557.6
425.499969482,3506.55
425.792205811,3439.775
426.084411621,3200.9
426.376617432,3273.3
426.668762207,3343.95
426.9609375,3212.05
427.253082275,3334.15
427.545196533,3750.175
427.837310791,3448.675
428.129425049,3181.275
428.421447754,3389.05
428.713531494,3405.05
429.005554199,3385.2
429.297576904,3395.525
429.589599609,3828.925
429.881561279,4158.475
430.173522949,3929.75
430.465484619,3878.225
430.757415771,3959.1
431.049316406,3727.5
431.341186523,3486.0
431.633117676,3386.45
431.924957275,3074.45
432.21673584,2977.1
432.508636475,3111.0
432.800415039,3132.05
433.092163086,3023.075
433.383972168,3003.75
433.675689697,3723.45
433.967437744,4220.275
434.259155273,3252.975
434.550872803,2950.675
434.842498779,3000.725
435.134185791,3127.725
435.425842285,3137.225
435.717437744,3047.125
436.009063721,2863.225
436.30065918,2994.125
436.592224121,3353.525
436.883758545,3151.6
437.175323486,2877.425
437.466827393,2851.1
437.758331299,2878.525
438.049804688,2897.6
438.341247559,2973.45
438.63269043,3044.6
438.924163818,3038.3
439.215515137,2987.7
439.50692749,2887.775
439.798309326,2897.95
440.089660645,2918.0
440.380981445,2815.8
440.672332764,2823.375
440.963623047,3093.525
441.254882812,3550.25
441.546173096,3728.45
441.837402344,3480.75
442.128631592,3277.55
442.41986084,3266.1
442.711029053,3127.8
443.002197266,3206.5
443.293365479,3394.425
443.584503174,3510.45
443.875610352,3494.675
444.166717529,3229.325
444.457794189,3281.225
444.748840332,3286.95
445.039916992,3232.625
445.330932617,3323.35
445.621948242,3171.5
445.912963867,2954.075
446.203918457,3203.4
446.494812012,3428.95
446.785827637,3215.525
447.076721191,3030.575
447.367584229,3022.675
447.658447266,2989.2
447.949371338,3049.725
448.24017334,2913.175
448.530975342,2830.55
448.821838379,3030.25
449.112579346,3105.95
449.40335083,3029.5
449.694152832,3057.375
449.984863281,3061.55
450.27557373,2996.375
450.56628418,3064.15
450.856933594,3084.625
451.147583008,2919.825
451.438262939,2793.1
451.728881836,3010.675
452.019470215,3110.8
452.310089111,2885.85
452.600646973,2933.4
452.891174316,2988.85
453.181732178,2806.15
453.472229004,2681.225
453.762695312,2780.925
454.053222656,2818.075
454.343658447,2673.95
454.634063721,2615.1
454.924530029,2787.55
455.214935303,2941.775
455.505279541,2999.075
455.795715332,2855.8
456.086029053,2669.375
456.376312256,2644.9
456.666687012,2681.225
456.956939697,2786.675
457.247192383,2771.275
457.537445068,2866.45
457.827728271,3036.7
458.117919922,2966.9
458.408081055,2910.725
458.698303223,3076.95
458.988433838,3022.325
459.278564453,2835.05
459.568725586,3119.0
459.858825684,3242.125
460.148864746,2901.025
460.438995361,2878.925
460.729034424,2934.775
461.019042969,2937.075
461.309082031,3142.375
461.599060059,3012.425
461.889007568,2552.825
462.179016113,2369.85
462.468933105,2619.95
462.75881958,2727.925
463.048736572,2484.075
463.338592529,2746.75
463.628448486,3092.725
463.918365479,2802.625
464.2081604,2970.825
464.497924805,2935.175
464.787780762,3052.325
465.077514648,3363.95
465.367218018,2979.375
465.657012939,3185.725
465.946685791,3602.05
466.236358643,3196.55
466.526092529,2672.825
466.815734863,2676.175
467.105316162,2589.45
467.394927979,2621.85
467.684570312,2461.75
467.974121094,2563.35
468.263671875,2678.5
468.553222656,2458.175
468.842773438,2360.475
469.132232666,2236.5
469.42175293,2258.825
469.711212158,2221.7
470.000640869,2103.35
470.290100098,2167.65
470.579498291,2223.075
470.868835449,2206.55
471.158294678,2164.25
471.447601318,2155.075
471.736907959,2221.15
472.026275635,2281.5
472.315551758,2271.05
472.604797363,2269.475
472.894104004,2403.95
473.183319092,2501.125
473.47253418,2496.3
473.761779785,2476.925
474.05090332,2418.425
474.340087891,2373.8
474.629241943,2303.7
474.918365479,2473.575
475.207427979,2758.975
475.496551514,2766.45
475.785614014,2513.1
476.074645996,2309.475
476.363708496,2396.8
476.652679443,2543.975
476.941650391,2368.225
477.230682373,2203.3
477.519622803,2199.2
477.808502197,2351.25
478.097412109,2626.65
478.386352539,2588.1
478.675201416,2314.375
478.964050293,2195.875
479.25289917,2400.55
479.541717529,2452.375
479.830474854,2277.775
480.11932373,2648.225
480.408050537,2817.75
480.696777344,2429.15
480.985534668,2307.725
481.274200439,2400.3
481.562866211,2667.125
481.851593018,2675.25
482.140197754,2618.875
482.428833008,2444.5
482.717468262,2244.8
483.006011963,2268.525
483.294586182,2399.25
483.5831604,2449.25
483.871673584,2298.925
484.16015625,2450.375
484.448699951,2682.65
484.7371521,2720.8
485.02557373,2721.775
485.314025879,2474.575
485.602416992,3821.3
485.890777588,13521.45
486.179199219,12085.2
486.467559814,3246.025
486.755859375,2353.275
487.044219971,2742.925
487.332519531,2937.45
487.620758057,2524.4
487.908966064,2249.075
488.197265625,2050.775
488.485473633,1947.775
488.773651123,2066.725
489.061859131,2060.9
489.350006104,2010.45
489.638122559,1951.2
489.926300049,1964.65
490.214355469,1919.6
490.502441406,1876.175
490.790527344,1807.35
491.078552246,2002.275
491.366546631,1989.75
491.654602051,1756.675
491.942565918,1849.5
492.230499268,1891.525
492.518493652,1843.775
492.806396484,1884.225
493.094268799,1788.825
493.382202148,1820.375
493.670074463,1950.575
493.957885742,1804.775
494.245727539,1788.3
494.533508301,1956.825
494.821289062,1848.275
495.109100342,1694.95
495.396850586,1638.975
495.684539795,1592.725
495.972290039,1801.975
496.25994873,2152.7
496.547607422,2156.65
496.835296631,1991.625
497.122894287,1650.55
497.410522461,1562.525
497.6980896,1568.875
497.985687256,1531.275
498.273223877,1644.725
498.560760498,1714.275
498.848266602,1734.45
499.135772705,1706.275
499.423217773,1753.3
499.710693359,1866.2
499.998138428,1790.95
500.285522461,1627.7
500.572937012,1544.325
500.860290527,1617.7
501.147644043,1699.5
501.434997559,1936.15
501.722290039,1799.8
502.00958252,1570.6
502.296875,1842.175
502.584106445,1817.125
502.871337891,1638.975
503.158599854,1715.95
503.445770264,1786.9
503.732910156,1770.025
504.020141602,1594.8
504.307220459,1561.575
504.594329834,1592.6
504.881469727,1535.25
505.168518066,1604.375
505.455535889,1675.8
505.742614746,1545.775
506.029632568,1478.65
506.316589355,1681.475
506.603637695,1751.75
506.890563965,1565.575
507.177459717,1397.4
507.464385986,1309.3
507.751312256,1538.125
508.038146973,1628.0
508.325012207,1480.85
508.611877441,1547.525
508.898681641,1544.025
509.185424805,1385.725
509.472259521,1349.975
509.759002686,1424.425
510.045715332,1458.7
510.332458496,1412.75
510.619140625,1462.325
510.905761719,1376.775
511.192504883,1361.55
511.479095459,1413.5
511.765686035,1362.05
512.052307129,1279.825
512.338928223,1230.925
512.625427246,1284.375
512.91204834,1335.575
513.198486328,1328.075
513.484985352,1287.275
513.77142334,1214.45
514.057922363,1253.8
514.344299316,1258.9
514.63079834,1207.55
514.917175293,1203.0
515.203552246,1101.575
515.489868164,1085.325
515.776245117,1208.2
516.0625,1247.65
516.348815918,1161.175
516.635070801,1194.975
516.921325684,1244.75
517.207580566,1177.825
517.493774414,1091.55
517.779968262,1091.825
518.066101074,1133.775
518.352294922,1082.375
518.638366699,1094.775
518.924499512,1165.125
519.210632324,1262.05
519.496643066,1203.0
519.782714844,1109.1
520.068786621,1079.375
520.354736328,1034.975
520.640686035,996.175
520.926757812,1048.3
521.212646484,1129.7
521.498535156,1123.225
521.784484863,1070.775
522.0703125,1009.2
522.356262207,1024.225
522.642089844,1098.9
522.927856445,1095.825
523.213684082,1086.4
523.499511719,1072.8
523.78527832,1114.125
524.070983887,1169.275
524.356750488,1146.15
524.64239502,1110.375
524.928039551,1098.55
525.213806152,1115.95
525.499389648,1104.375
525.784973145,1129.125
526.070617676,1173.275
526.356140137,1146.375
526.641723633,1152.175
526.927307129,1205.725
527.212768555,1218.425
527.498291016,1197.725
527.783752441,1179.1
528.069213867,1173.775
528.354675293,1194.05
528.640014648,1359.2
528.925476074,1426.425
529.21081543,1355.925
529.496154785,1330.925
529.781555176,1289.55
530.066833496,1318.1
530.352050781,1327.325
530.637390137,1314.5
530.922607422,1312.05
531.207824707,1309.875
531.493041992,1304.45
531.778198242,1366.05
532.063354492,1349.025
532.348571777,1289.125
532.633666992,1315.9
532.918762207,1390.25
533.203857422,1474.6
533.488891602,1490.75
533.773925781,1451.45
534.059020996,1422.475
534.343933105,1442.35
534.628967285,1428.675
534.91394043,1435.4
535.198852539,1444.8
535.483703613,1435.525
535.768676758,1364.625
536.053527832,1367.325
536.338317871,1340.625
536.62322998,1263.3
536.90802002,1243.85
537.192810059,1259.75
537.477539062,1352.8
537.762329102,1390.2
538.047058105,1423.7
538.331726074,1462.75
538.616455078,1438.625
538.901123047,1422.1
539.18572998,1473.175
539.470397949,1462.575
539.755004883,1458.05
540.039550781,1428.3
540.32409668,1375.525
540.608703613,1418.4
540.893188477,1525.125
541.17767334,1541.725
541.462158203,1535.55
541.746643066,1484.0
542.031066895,1521.275
542.315429688,1572.675
542.59979248,1563.45
542.884216309,1545.175
543.168579102,1542.275
543.452941895,1542.825
543.737243652,1603.85
544.021484375,1648.45
544.305725098,1626.35
544.590026855,1605.85
544.874267578,1627.975
545.158447266,1700.0
545.442626953,1616.325
545.726806641,1496.9
546.010925293,1540.0
546.29510498,1573.775
546.579162598,1574.75
546.863220215,1600.0
547.147277832,1662.025
547.431335449,1746.65
547.715332031,1802.85
547.999328613,1911.725
548.283325195,1928.65
548.567260742,1783.525
548.851135254,1758.55
549.135070801,1728.4
549.419006348,1627.85
549.702819824,1726.625
549.986755371,1790.875
550.270507812,1762.625
550.554321289,1815.375
550.83807373,1816.7
551.121826172,1784.375
551.405517578,1798.8
551.689331055,1917.725
551.973022461,2145.525
552.256652832,2216.5
552.540344238,2106.4
552.823974609,2089.9
553.107543945,2071.05
553.391174316,2141.1
553.674743652,2179.35
553.958251953,2193.9
554.241821289,2205.55
554.525268555,2137.35
554.808776855,2140.625
555.092285156,2335.825
555.375671387,2403.05
555.659057617,2391.175
555.942504883,2431.975
556.225891113,2467.575
556.509216309,2440.475
556.792541504,2349.85
557.075866699,2413.575
557.359130859,2457.55
557.64239502,2445.475
557.92565918,2532.225
558.208862305,2498.45
558.49206543,2451.1
558.77532959,2456.625
559.058410645,2522.175
559.341552734,2490.45
559.624694824,2539.75
559.907775879,2623.9
560.190856934,2750.05
560.473937988,2727.2
560.756896973,2783.55
561.039978027,2798.925
561.322937012,2764.275
561.605895996,2766.1
561.88885498,2727.05
562.171813965,2733.2
562.454650879,2713.725
562.737548828,2754.55
563.020446777,2824.475
563.303283691,2849.8
563.58605957,2871.675
563.868896484,2883.475
564.151672363,2941.75
564.434387207,2978.8
564.717163086,2960.325
564.99987793,2977.4
565.282531738,3051.575
565.565185547,2984.55
565.847839355,2993.325
566.130432129,3129.025
566.413085938,3101.05
566.695678711,3100.9
566.978149414,3211.3
567.260681152,3371.325
567.543273926,3445.175
567.825744629,3342.05
568.108154297,3371.075
568.390686035,3517.975
568.673095703,3624.275
568.955505371,3694.15
569.237854004,3703.075
569.520202637,3991.425
569.802490234,4190.725
570.084838867,4168.85
570.367126465,3999.95
570.649414062,4004.975
570.93170166,4370.45
571.213928223,4452.75
571.496154785,4186.125
571.778381348,4422.125
572.06048584,4689.975
572.342590332,4238.2
572.624755859,3888.55
572.906860352,3940.275
573.188903809,4613.775
573.470947266,4872.675
573.752990723,4623.575
574.03503418,4710.1
574.317016602,5117.55
574.598937988,4912.15
574.88092041,4791.575
575.162841797,4977.725
575.444763184,4599.0
575.726623535,4348.05
576.008483887,4380.075
576.290344238,4792.325
576.572143555,5002.225
576.853881836,5055.55
577.135681152,4952.6
577.417419434,5014.2
577.699157715,5882.8
577.980895996,6055.525
578.262573242,5388.475
578.544128418,4922.475
578.825866699,4851.775
579.107421875,4538.6
579.388977051,4690.325
579.670593262,5099.475
579.952148438,4939.85
580.233642578,5079.825
580.515197754,5175.975
580.796691895,4849.375
581.078125,5055.225
581.359619141,6558.675
581.640991211,6657.55
581.922363281,5733.075
582.203796387,5814.5
582.485107422,5423.725
582.766418457,5040.425
583.047790527,4877.625
583.329040527,4751.975
583.610290527,4634.125
583.891540527,4734.55
584.172790527,5068.525
584.453918457,5062.025
584.735107422,5126.875
585.016235352,5570.25
585.297363281,5522.875
585.578552246,5333.85
585.859619141,5267.75
586.140625,5032.8
586.421630859,4906.8
586.702697754,4962.55
586.983642578,5176.375
587.264648438,5373.35
587.545654297,5278.5
587.826477051,5226.125
588.107421875,5051.35
588.388305664,5088.025
588.669189453,5164.725
588.950012207,5026.1
589.230834961,4919.375
589.511657715,4994.55
589.792358398,5095.65
590.073120117,5108.675
590.353881836,5076.2
590.63458252,5107.25
590.915283203,5056.175
591.195922852,5062.525
591.4765625,5091.9
591.757202148,5139.375
592.037780762,5099.1
592.31829834,5123.175
592.598937988,5320.05
592.879394531,5513.65
593.159912109,5401.825
593.440429688,5342.8
593.720825195,5340.0
594.001281738,5307.0
594.281677246,5221.55
594.562072754,5243.725
594.842407227,5331.1
595.122802734,5368.15
595.403137207,5371.2
595.683410645,5338.275
595.963623047,5312.35
596.243896484,5272.3
596.524169922,5273.15
596.804382324,5268.15
597.084533691,5325.2
597.364746094,5338.225
597.644836426,5366.45
597.924987793,5362.25
598.205078125,5296.775
598.485107422,5334.175
598.765197754,5452.775
599.045227051,5521.9
599.325195312,5433.2
599.605224609,5376.6
599.885192871,5422.3
600.165100098,5451.125
600.445007324,5408.6
600.724914551,5407.925
601.004760742,5412.35
601.284667969,5442.35
601.56451416,5403.725
601.844238281,5397.375
602.124084473,5404.2
602.403808594,5406.45
602.683532715,5448.975
602.963256836,5430.45
603.242919922,5479.7
603.522583008,5512.475
603.802246094,5479.5
604.081848145,5442.8
604.36138916,5423.25
604.641052246,5443.825
604.920532227,5432.425
605.200073242,5468.825
605.479614258,5480.625
605.759094238,5527.625
606.038574219,5508.4
606.317932129,5442.575
606.597412109,5453.9
606.87677002,5453.075
607.15612793,5498.875
607.435546875,5509.75
607.714782715,5501.1
607.99407959,5468.425
608.273376465,5466.4
608.552612305,5493.175
608.831848145,5495.45
609.111083984,5481.1
609.390258789,5458.4
609.669433594,5471.7
609.948608398,5503.05
610.227722168,5518.95
610.506713867,5451.625
610.785888672,5478.225
611.064880371,5454.175
611.34387207,5454.275
611.622924805,5474.3
611.901916504,5467.55
612.180847168,5409.225
612.459777832,5399.75
612.738647461,5414.125
613.01751709,5384.525
613.296447754,5331.6
613.575317383,5317.6
613.854064941,5252.075
614.132873535,5169.75
614.411621094,5141.3
614.690368652,5089.925
614.969177246,5030.825
615.247802734,4965.8
615.526489258,4938.825
615.805175781,4828.7
616.08380127,4722.6
616.362365723,4633.65
616.640991211,4577.725
616.919555664,4526.475
617.198059082,4644.075
617.4765625,4913.75
617.755126953,5070.775
618.033569336,5070.375
618.311950684,5070.4
618.590454102,5063.8
618.868774414,5032.875
619.147155762,5048.7
619.425598145,5031.7
619.703857422,5041.675
619.982177734,5039.5
620.260498047,5040.0
620.538757324,5029.95
620.816955566,4997.55
621.095214844,4970.825
621.373413086,4966.8
621.651550293,5054.75
621.929748535,5071.575
622.207824707,5059.55
622.485900879,5066.175
622.764038086,5056.125
623.042053223,5090.475
623.320007324,5116.425
623.598083496,5104.975
623.876037598,5099.25
624.153991699,5115.1
624.432006836,5129.45
624.709838867,5127.425
624.987731934,5124.1
625.265563965,5118.9
625.543395996,5134.8
625.821228027,5195.3
626.098999023,5157.05
626.376831055,5228.7
626.654541016,5250.575
626.932250977,5270.15
627.209960938,5310.025
627.487670898,5338.65
627.765319824,5349.9
628.04296875,5372.85
628.320495605,5363.2
628.598083496,5351.075
628.875671387,5392.55
629.153259277,5440.775
629.430725098,5462.55
629.708251953,5460.55
629.985656738,5498.675
630.263122559,5542.075
630.540588379,5557.025
630.817932129,5581.275
631.095275879,5610.6
631.372680664,5657.3
631.649963379,5706.375
631.927246094,5739.65
632.204589844,5760.85
632.481811523,5823.7
632.759033203,5905.175
633.036254883,5893.85
633.313415527,5984.875
633.590576172,6058.175
633.867736816,6138.15
634.144836426,6221.375
634.421875,6247.75
634.698913574,6315.175
634.976013184,6336.2
635.252990723,6403.875
635.529968262,6449.275
635.807006836,6519.0
636.08392334,6498.45
636.360839844,6415.825
636.637756348,6315.475
636.914611816,6302.1
637.191467285,6308.725
637.468261719,6360.925
637.745056152,6315.8
638.021789551,6359.5
638.298583984,6355.7
638.575317383,6399.275
638.851989746,6413.125
639.12878418,6399.6
639.405395508,6404.125
639.682006836,6419.3
639.958618164,6427.25
640.235229492,6406.0
640.511779785,6426.825
640.788330078,6423.075
641.064880371,6415.375
641.341308594,6417.175
641.617797852,6429.05
641.894226074,6432.5
642.170654297,6454.325
642.44708252,6446.2
642.723388672,6416.475
642.999755859,6413.1
643.276123047,6415.25
643.552429199,6413.8
643.828674316,6428.4
644.104919434,6409.075
644.381164551,6377.925
644.657348633,6404.625
644.933532715,6360.875
645.209716797,6379.65
645.485839844,6388.25
645.761901855,6385.725
646.038024902,6352.4
646.314086914,6403.475
646.590087891,6372.075
646.866149902,6435.075
647.142150879,6379.125
647.41809082,6344.0
647.694030762,6353.575
647.969970703,6339.225
648.245788574,6379.4
648.521728516,6370.55
648.797546387,6363.075
649.073303223,6354.975
649.349182129,6343.15
649.624938965,6348.725
649.900634766,6358.0
650.176391602,6338.275
650.452087402,6318.625
650.727783203,6330.425
651.003479004,6328.2
651.279052734,6321.125
651.554626465,6311.825
651.83026123,6297.65
652.105773926,6313.9
652.381286621,6276.475
652.656860352,6310.65
652.932312012,6317.875
653.207763672,6305.1
653.483215332,6341.075
653.758605957,6320.75
654.033935547,6346.35
654.309326172,6330.55
654.584716797,6354.625
654.859985352,6331.4
655.135253906,6369.525
655.410583496,6383.15
655.685791016,7367.9
655.9609375,11462.075
656.236206055,11217.275
656.511291504,7432.9
656.786437988,6536.975
657.061645508,6432.175
657.336669922,6414.45
657.611694336,6471.4
657.886779785,6480.85
658.161804199,6504.525
658.436828613,6450.15
658.711791992,6475.45
658.986755371,6481.525
659.261657715,6522.375
659.536621094,6506.625
659.811401367,6527.575
660.086303711,6521.15
660.36114502,6536.125
660.635864258,6530.425
660.910644531,6567.8
661.185424805,6568.725
661.460205078,6570.475
661.734863281,6593.35
662.009521484,6573.2
662.284179688,6626.375
662.558776855,6616.4
662.833435059,6644.05
663.108032227,6663.9
663.382568359,6632.15
663.657043457,6704.625
663.93157959,6711.775
664.206054688,6685.175
664.48046875,6735.75
664.755004883,6746.2
665.02935791,6766.75
665.303710938,6789.375
665.578125,6797.375
665.852416992,6797.85
666.126708984,6794.975
666.401062012,6796.45
666.675292969,6863.0
666.949462891,6851.9
667.223754883,6875.75
667.497924805,6868.7
667.772094727,6912.15
668.046264648,6878.525
668.3203125,6961.6
668.594421387,6974.75
668.868469238,6982.6
669.14251709,6970.225
669.416503906,7003.55
669.690551758,6996.775
669.964477539,7025.975
670.23840332,7040.325
670.512329102,7045.475
670.786254883,7026.125
671.060058594,7078.675
671.333984375,7093.025
671.607788086,7122.525
671.881530762,7104.9
672.155334473,7127.0
672.429077148,7158.325
672.702758789,7138.35
672.97644043,7122.125
673.25012207,7144.15
673.523742676,7155.5
673.797302246,7176.45
674.070922852,7217.025
674.344482422,7230.35
674.618041992,7223.55
674.891601562,7209.925
675.165100098,7233.725
675.438476562,7208.1
675.711975098,7235.275
675.985412598,7219.45
676.258789062,7218.375
676.532165527,7293.3
676.805480957,7277.45
677.078796387,7289.8
677.352111816,7296.35
677.625366211,7289.55
677.898620605,7285.525
678.171875,7336.275
678.445007324,7334.65
678.718200684,7361.1
678.991394043,7334.025
679.264404297,7344.575
679.537536621,7394.9
679.81060791,7402.475
680.083679199,7406.025
680.356689453,7395.0
680.629699707,7404.9
680.902648926,7380.75
681.175598145,7445.375
681.448547363,7494.8
681.721435547,7422.05
681.99420166,7435.225
682.267150879,7412.025
682.539916992,7476.925
682.812744141,7480.35
683.085510254,7472.525
683.358215332,7461.6
683.63092041,7464.2
683.903625488,7466.075
684.176330566,7474.475
684.448913574,7455.45
684.721557617,7444.275
684.99420166,7524.6
685.266662598,7501.025
685.539245605,7505.45
685.811767578,7533.4
686.084289551,7557.85
686.356689453,7560.95
686.629150391,7621.375
686.901550293,7645.575
687.17401123,7624.475
687.446350098,7658.9
687.718688965,7669.35
687.990966797,7689.1
688.263305664,7706.525
688.535522461,7709.925
688.807739258,7662.075
689.079956055,7749.8
689.352172852,7744.075
689.624328613,7740.6
689.896484375,7779.2
690.168518066,7773.325
690.440612793,7788.85
690.71270752,7825.3
690.984741211,7811.425
691.256713867,7832.575
691.528747559,7823.975
691.800720215,7825.65
692.072631836,7847.575
692.344543457,7887.4
692.616394043,7916.025
692.888244629,7905.725
693.160095215,7942.525
693.431945801,7962.825
693.703674316,7944.475
693.975463867,7930.075
694.247131348,7999.025
694.518859863,7975.325
694.790588379,7999.475
695.062255859,8005.625
695.33380127,7980.6
695.60546875,7993.925
695.87701416,8019.9
696.148498535,8010.0
696.42010498,8036.7
696.691589355,8047.9
696.96307373,8051.25
697.234558105,8127.125
697.50592041,8120.725
697.777282715,8130.775
698.048706055,8126.0
698.320068359,8164.875
698.591308594,8130.225
698.862670898,8139.7
699.133972168,8153.075
699.405151367,8143.05
699.676391602,8190.7
699.947570801,8169.0
700.21875,8226.5
700.489868164,8202.3
700.761047363,8203.15
701.032104492,8267.9
701.303100586,8195.375
701.57421875,8264.6
701.845214844,8240.625
702.116149902,8279.5
702.387207031,8266.325
702.65814209,8269.2
702.928955078,8290.5
703.199951172,8281.225
703.47076416,8275.875
703.741577148,8282.975
704.012451172,8320.725
704.28314209,8296.15
704.553955078,8296.8
704.824707031,8341.15
705.095397949,8353.1
705.366027832,8359.825
705.63671875,8346.85
705.907348633,8343.175
706.17791748,8353.25
706.448486328,8372.1
706.719055176,8371.15
706.989562988,8382.85
707.260131836,8399.375
707.530517578,8400.1
707.800964355,8424.325
708.071411133,8351.925
708.341796875,8410.625
708.612182617,8375.025
708.882446289,8351.65
709.152893066,8368.1
709.423156738,8380.675
709.693359375,8350.175
709.963623047,8367.95
710.233825684,8417.175
710.503967285,8361.225
710.774169922,8404.325
711.044311523,8413.9
711.31439209,8373.375
711.584533691,8401.35
711.854553223,8411.125
712.124572754,8393.225
712.39465332,8368.9
712.664611816,8401.725
712.934509277,8447.25
713.204467773,8422.425
713.474365234,8448.6
713.74420166,8418.575
714.014099121,8461.6
714.283874512,8426.075
714.553710938,8457.85
714.823486328,8457.225
715.093200684,8415.775
715.362915039,8433.2
715.632629395,8413.275
715.902282715,8427.5
716.171875,8414.8
716.441589355,8412.75
716.711181641,8372.325
716.980712891,8394.075
717.250244141,8390.25
717.519775391,8395.125
717.78918457,8382.625
718.058654785,8464.7
718.328125,8467.55
718.597473145,8422.55
718.866882324,8416.925
719.136230469,8410.425
719.405578613,8447.025
719.674865723,8472.975
719.944152832,8430.925
720.213439941,8360.025
720.48260498,8441.325
720.75177002,8430.275
721.020996094,8459.05
721.290100098,8419.65
721.559204102,8393.35
721.828308105,8427.925
722.097351074,8428.85
722.366455078,8396.125
722.635437012,8408.075
722.904418945,8356.025
723.173400879,8405.6
723.442321777,8384.85
723.711181641,8355.05
723.980102539,8412.65
724.248962402,8388.275
724.51776123,8392.475
724.786560059,8411.325
725.055358887,8398.875
725.324035645,8347.625
725.592834473,8364.0
725.86151123,8351.6
726.130187988,8344.1
726.398803711,8312.2
726.667419434,8357.8
726.935974121,8327.075
727.204528809,8246.625
727.473083496,8281.675
727.741638184,8250.075
728.010070801,8225.45
728.278564453,8205.575
728.546936035,8206.05
728.815368652,8163.175
729.08380127,8081.375
729.352111816,8062.925
729.620361328,8004.925
729.88873291,8048.55
730.156982422,8089.775
730.425231934,8086.125
730.693481445,8082.925
730.961669922,8138.05
731.229797363,8151.0
731.49798584,8164.475
731.766113281,8206.575
732.034118652,8279.625
732.302246094,8301.25
732.570251465,8325.0
732.838256836,8365.025
733.106262207,8449.775
733.374145508,8446.775
733.642089844,8460.95
733.909973145,8523.375
734.177856445,8574.55
734.445678711,8640.575
734.713562012,8740.125
734.981323242,8762.5
735.249084473,8780.475
735.516845703,8911.85
735.784545898,8978.925
736.052185059,9005.8
736.319885254,9117.5
736.587524414,9162.775
736.855102539,9197.025
737.122619629,9287.475
737.390197754,9318.35
737.657714844,9423.475
737.925170898,9484.525
738.192749023,9592.075
738.460144043,9622.075
738.727539062,9687.7
738.994995117,9756.025
739.262329102,9838.475
739.529663086,9893.725
739.79699707,9928.4
740.06427002,9980.275
740.331481934,10067.025
740.598754883,10101.4
740.865905762,10121.85
741.133056641,10261.15
741.40032959,10217.725
741.667358398,10357.375
741.934448242,10340.375
742.201599121,10416.05
742.468566895,10491.15
742.735534668,10522.575
743.002563477,10544.575
743.26953125,10553.775
743.536437988,10636.1
743.803405762,10688.8
744.0703125,10633.775
744.337097168,10745.1
744.604003906,10637.475
744.870727539,10719.95
745.137512207,10749.9
745.40423584,10769.825
745.670959473,10725.675
745.93762207,10751.25
746.204284668,10731.0
746.470947266,10746.2
746.737548828,10724.825
747.004089355,10772.375
747.270751953,10766.925
747.53717041,10812.975
747.803710938,10736.125
748.070251465,10733.075
748.336608887,10731.025
748.603027344,10716.3
748.869445801,10699.225
749.135803223,10706.275
749.402099609,10707.375
749.668457031,10718.525
749.934753418,10679.3
750.20098877,10594.05
750.467224121,10654.825
750.733459473,10609.275
750.999572754,10589.6
751.26574707,10537.3
751.531860352,10546.125
751.797912598,10482.8
752.064025879,10476.925
752.330078125,10446.625
752.596069336,10423.875
752.862060547,10390.375
753.127990723,10394.825
753.393920898,10335.95
753.659912109,10290.15
753.925720215,10319.9
754.19152832,10279.15
754.457397461,10218.725
754.723144531,10195.15
754.988952637,10153.15
755.254699707,10168.175
755.520385742,10174.1
755.786071777,10155.475
756.051696777,10143.925
756.317382812,10064.8
756.582946777,10039.525
756.848510742,10045.55
757.114074707,10007.475
757.379577637,9996.35
757.645080566,10028.25
757.910583496,9980.775
758.175964355,9932.4
758.441345215,9915.575
758.706848145,9799.3
758.972106934,9812.35
759.237426758,9799.925
759.502807617,9806.975
759.768005371,9804.975
760.03326416,9755.55
760.298522949,9677.925
760.563659668,9707.45
760.828857422,9650.0
761.093994141,9680.95
761.359130859,9605.05
761.624206543,9568.275
761.889282227,9557.45
762.15423584,9549.1
762.419250488,9488.25
762.684265137,9490.125
762.949157715,9436.625
763.214050293,9411.825
763.479003906,9425.75
763.743835449,9396.5
764.008666992,9340.5
764.2734375,9316.725
764.538208008,9348.575
764.802978516,9366.55
765.067687988,9337.2
765.332397461,9333.625
765.597045898,9302.525
765.861694336,9267.775
766.126342773,9243.25
766.390930176,9208.475
766.655395508,9170.15
766.920043945,9130.625
767.184509277,9128.5
767.448974609,9107.925
767.713439941,9116.5
767.977783203,9052.7
768.2421875,9088.475
768.506591797,9006.225
768.770874023,9082.425
769.03515625,9017.525
769.299499512,8998.975
769.563720703,9042.475
769.827941895,8955.325
770.092163086,8959.825
770.356323242,8933.575
770.620483398,8945.65
770.88458252,8939.825
771.148681641,8984.65
771.412719727,8915.925
771.676757812,8887.875
771.940734863,8860.725
772.204711914,8851.65
772.468688965,8830.025
772.73260498,8823.175
772.996459961,8827.175
773.260314941,7852.275
773.524169922,1013.375
773.787963867,148.4
774.051696777,122.55
774.315551758,119.525
774.579223633,121.125
774.842895508,118.75
775.106567383,121.7
775.370239258,116.75
775.633789062,121.95
775.897399902,124.2
776.160949707,118.7
776.424499512,119.875
776.687988281,122.5
776.951477051,125.575
777.214904785,117.775
777.47833252,120.85
