191.299911499,98.125
191.603515625,101.575
191.907119751,96.65
192.210693359,103.85
192.514251709,94.325
192.817810059,102.75
193.121368408,102.975
193.42489624,106.025
193.728408813,97.25
194.031936646,99.6
194.33543396,94.675
194.638916016,112.25
194.94241333,95.9
195.245880127,96.05
195.549331665,98.125
195.852767944,98.275
196.156204224,193.075
196.459625244,193.175
196.763015747,189.45
197.066436768,196.5
197.369812012,190.575
197.673187256,191.525
197.9765625,188.35
198.279922485,189.45
198.583251953,185.575
198.886581421,194.275
199.18989563,197.0
199.493209839,192.45
199.79649353,185.075
200.09979248,195.3
200.403076172,189.85
200.706314087,192.025
201.009567261,190.25
201.312820435,195.25
201.616027832,185.55
201.919235229,174.525
202.222457886,184.675
202.525634766,186.875
202.828826904,179.225
203.132003784,179.0
203.435150146,181.575
203.738296509,186.575
204.041412354,180.25
204.344558716,188.725
204.647659302,186.1
204.950759888,188.425
205.253845215,184.65
205.556930542,181.375
205.859985352,186.95
206.163024902,184.975
206.466079712,185.4
206.769104004,197.25
207.072113037,186.35
207.375137329,185.0
207.678131104,188.2
207.981109619,186.15
208.284088135,181.675
208.587036133,186.725
208.889984131,188.475
209.19291687,189.025
209.495849609,194.9
209.798751831,190.875
210.101654053,191.5
210.404556274,194.15
210.707427979,192.4
211.010269165,200.05
211.31312561,196.525
211.615982056,196.675
211.918807983,195.225
212.221618652,190.575
212.524429321,190.125
212.827224731,199.875
213.130004883,199.375
213.432769775,198.6
213.735534668,199.675
214.038269043,203.65
214.341003418,203.45
214.643737793,201.8
214.946456909,211.225
215.249145508,212.275
215.551834106,210.975
215.854507446,211.2
216.157165527,209.175
216.45980835,208.65
216.762451172,219.625
217.065078735,218.65
217.36769104,217.175
217.670303345,223.15
217.972885132,223.225
218.275466919,230.075
218.578048706,227.525
218.880599976,245.55
219.183120728,256.45
219.485656738,269.05
219.788192749,300.15
220.090682983,327.125
220.393188477,366.55
220.695663452,419.575
220.998138428,462.6
221.300582886,528.225
221.603042603,580.675
221.905487061,649.875
222.207901001,720.325
222.510299683,802.975
222.812728882,902.15
223.115097046,976.125
223.41746521,1073.025
223.719848633,1145.075
224.022171021,1232.675
224.324508667,1323.775
224.626846313,1443.575
224.929168701,1512.8
225.231460571,1623.225
225.533737183,1707.125
225.836013794,1817.975
226.138290405,1877.175
226.440536499,1973.95
226.742767334,2031.675
227.044998169,2104.3
227.347213745,2170.975
227.649429321,2244.225
227.951629639,2272.375
228.253799438,2310.75
228.555953979,2358.125
228.858123779,2425.15
229.160263062,2453.35
229.462371826,2478.925
229.764511108,2496.55
230.066619873,2501.65
230.36869812,2546.275
230.670776367,2577.85
230.972854614,2586.05
231.274902344,2640.5
231.576950073,2655.775
231.878967285,2689.35
232.180999756,2700.95
232.48298645,2766.725
232.784988403,2794.2
233.086975098,2803.775
233.388946533,2836.65
233.69090271,2864.975
233.992858887,2915.025
234.294769287,2925.35
234.596694946,2953.475
234.898605347,2993.225
235.200500488,2994.75
235.502380371,3010.225
235.804244995,3043.0
236.106109619,3022.85
236.407958984,3034.85
236.709777832,3048.15
237.011581421,3058.85
237.313400269,3055.35
237.615203857,3059.25
237.916976929,3063.275
238.21875,3079.725
238.520507812,3071.65
238.822250366,3089.05
239.12399292,3047.45
239.425704956,3078.45
239.727401733,3043.275
240.02911377,3060.825
240.330780029,3043.275
240.632446289,3036.75
240.93409729,3043.15
241.23576355,3036.2
241.537384033,3036.15
241.839004517,3051.4
242.140594482,3044.35
242.442199707,3078.375
242.743774414,3065.9
243.045333862,3080.875
243.346923828,3071.75
243.648452759,3083.4
243.949966431,3101.6
244.251495361,3091.75
244.552993774,3108.525
244.854492188,3104.575
245.155975342,3118.0
245.457443237,3130.225
245.758880615,3119.675
246.060333252,3131.9
246.36177063,3109.775
246.66317749,3114.075
246.964569092,3121.625
247.265945435,3161.825
247.567337036,3140.025
247.86869812,3188.075
248.170059204,3187.65
248.471389771,3182.55
248.772705078,3240.05
249.074035645,3235.475
249.375335693,3253.25
249.676620483,3295.875
249.977890015,3314.575
250.279159546,3377.0
250.58039856,3418.025
250.881637573,3456.9
251.182876587,3476.625
251.484069824,3513.925
251.785263062,3557.75
252.086456299,3635.55
252.387619019,3671.5
252.688781738,3703.95
252.989929199,3749.55
253.291061401,3782.1
253.592178345,3841.975
253.893280029,3873.7
254.194366455,3924.05
254.49546814,3933.25
254.796524048,3943.525
255.097579956,3989.475
255.398620605,4023.125
255.699645996,4055.875
256.000640869,4051.8
256.30166626,4073.175
256.602661133,4105.5
256.903656006,4100.3
257.204589844,4115.95
257.505523682,4072.975
257.80645752,4142.175
258.107391357,4140.2
258.408294678,4136.95
258.709228516,4108.625
259.010070801,4086.975
259.310943604,4079.9
259.611846924,4064.25
259.912658691,4056.25
260.213500977,4046.575
260.514343262,3992.5
260.815124512,3985.45
261.115936279,3976.825
261.416717529,3996.425
261.717468262,3989.875
262.018218994,3970.075
262.318969727,3986.3
262.619689941,4043.075
262.920410156,4086.9
263.221130371,4136.075
263.521789551,4196.1
263.822479248,4245.075
264.123138428,4290.325
264.42376709,4317.425
264.72442627,4354.05
265.025054932,4394.225
265.325622559,4432.5
265.626251221,4427.325
265.926818848,4486.2
266.227386475,4467.775
266.527954102,4491.775
266.828460693,4520.775
267.12902832,4467.6
267.429534912,4506.05
267.730010986,4502.4
268.030517578,4483.525
268.330993652,4494.575
268.631439209,4523.25
268.931915283,4528.425
269.232299805,4525.3
269.532745361,4558.675
269.8331604,4545.925
270.133544922,4572.775
270.433929443,4590.275
270.734313965,4597.75
271.034637451,4681.475
271.334991455,4677.975
271.635314941,4749.3
271.935638428,4771.325
272.235931396,4852.725
272.536254883,4937.575
272.836486816,4989.825
273.136749268,5120.6
273.437011719,5224.425
273.737213135,5330.725
274.037445068,5463.825
274.337677002,5547.075
274.6378479,5684.275
274.938049316,5827.625
275.238220215,5949.05
275.538360596,6096.15
275.838500977,6189.725
276.138641357,6362.625
276.438751221,6441.2
276.738830566,6575.475
277.03894043,6663.2
277.338989258,6814.725
277.639038086,6948.0
277.939056396,7006.75
278.239105225,7105.15
278.539093018,7213.2
278.839141846,7294.55
279.139129639,7385.125
279.439086914,7496.4
279.739044189,7577.525
280.039001465,7685.25
280.338928223,7768.6
280.63885498,7814.175
280.938781738,7916.9
281.238647461,7965.85
281.538513184,7992.4
281.838409424,8061.775
282.138244629,8127.025
282.438079834,8164.85
282.737945557,8193.825
283.037719727,8221.8
283.337524414,8282.15
283.637298584,8316.725
283.937072754,8342.425
284.236816406,8364.275
284.536560059,8365.65
284.836303711,8397.575
285.136016846,8464.05
285.43572998,8490.35
285.735412598,8447.175
286.035064697,8470.95
286.334747314,8549.825
286.634368896,8538.675
286.933990479,8489.65
287.233642578,8464.2
287.533203125,8444.3
287.832824707,8377.65
288.132385254,8287.425
288.431945801,8148.375
288.731506348,8018.125
289.031036377,7850.05
289.330566406,7721.35
289.630065918,7739.375
289.92956543,7688.9
290.229034424,7803.95
290.528503418,7967.875
290.827941895,8133.475
291.127380371,8315.075
291.42678833,8442.8
291.726226807,8583.125
292.025604248,8607.05
292.324981689,8644.6
292.624359131,8662.4
292.923736572,8662.125
293.223052979,8691.85
293.522369385,8695.25
293.821685791,8647.275
294.12097168,8615.225
294.420257568,8608.1
294.719543457,8573.325
295.018768311,8542.925
295.318023682,8463.775
295.617248535,8436.275
295.916442871,8365.875
296.215667725,8286.45
296.514862061,8144.45
296.813995361,7925.3
297.11315918,7688.0
297.412322998,7545.975
297.711425781,7501.175
298.010559082,7673.475
298.309631348,7898.45
298.608734131,8118.325
298.907806396,8312.65
299.206848145,8492.675
299.505889893,8537.775
299.804901123,8656.95
300.103912354,8721.45
300.402954102,8814.3
300.701904297,8866.325
301.00088501,8939.7
301.299835205,9025.85
301.5987854,9054.8
301.897735596,9123.875
302.196624756,9210.45
302.495513916,9266.25
302.794403076,9282.325
303.093292236,9352.725
303.392120361,9414.025
303.690979004,9502.75
303.989837646,9553.675
304.288604736,9587.975
304.587402344,9552.925
304.886199951,9620.125
305.184967041,9667.1
305.483734131,9709.275
305.782501221,9735.675
306.081176758,9767.0
306.37991333,9780.05
306.678619385,9791.725
306.977294922,9806.025
307.275970459,9824.075
307.574645996,9848.2
307.873260498,9797.5
308.171875,9823.975
308.470489502,9849.325
308.769104004,9753.95
309.067687988,9739.25
309.366241455,9773.75
309.664794922,9694.475
309.963348389,9722.625
310.261871338,9711.175
310.560394287,9692.5
310.858856201,9728.5
311.157348633,9750.825
311.455810547,9767.7
311.754272461,9792.375
312.052703857,9825.65
312.351135254,9874.75
312.649536133,9878.05
312.947937012,9859.625
313.246307373,9902.9
313.544647217,9898.625
313.843017578,9838.775
314.141387939,9787.175
314.439697266,9824.775
314.738006592,9733.1
315.036315918,9667.275
315.334564209,9575.35
315.6328125,9535.225
315.931091309,9469.025
316.229309082,9323.925
316.527526855,9174.825
316.825744629,9137.525
317.123901367,9025.175
317.422088623,8980.475
317.720245361,8976.7
318.0184021,8986.75
318.316497803,9049.225
318.614654541,9088.275
318.912750244,9151.55
319.21081543,9161.575
319.50894165,9185.375
319.806945801,9167.25
320.104980469,9167.725
320.403045654,9152.3
320.701049805,9121.975
320.999023438,9118.55
321.297027588,9061.175
321.595001221,9034.7
321.892913818,8984.725
322.190887451,8932.475
322.488830566,8879.4
322.786712646,8821.975
323.084625244,8710.85
323.382507324,8719.15
323.680358887,8617.05
323.978210449,8527.65
324.276062012,8448.825
324.573852539,8409.375
324.871643066,8362.75
325.169464111,8280.225
325.467224121,8200.85
325.764984131,8154.0
326.062744141,8079.0
326.360473633,7976.35
326.658203125,7907.2
326.955871582,7827.375
327.253570557,7768.325
327.551239014,7704.025
327.848907471,7650.625
328.146514893,7565.925
328.444152832,7487.425
328.741790771,7424.95
329.039367676,7346.2
329.336914062,7299.55
329.634521484,7237.025
329.932067871,7173.5
330.229553223,7095.825
330.527160645,7050.45
330.824615479,7002.675
331.12210083,6906.775
331.419586182,6783.45
331.717041016,6746.8
332.014465332,6629.725
332.311920166,6606.95
332.609313965,6537.975
332.906707764,6518.8
333.204101562,6517.4
333.501495361,6511.375
333.798828125,6566.825
334.096160889,6614.875
334.39352417,6662.7
334.690795898,6721.8
334.988098145,6772.35
335.285400391,6846.875
335.582641602,6845.925
335.879882812,6885.925
336.177124023,6877.225
336.474334717,6950.75
336.77154541,6941.825
337.068725586,6975.175
337.365905762,6979.025
337.66305542,6996.0
337.960205078,7027.95
338.257324219,7039.775
338.554443359,7022.85
338.8515625,7046.5
339.148590088,7060.875
339.445648193,7092.225
339.742736816,7024.95
340.039764404,7016.65
340.336761475,6974.625
340.63381958,6930.175
340.930755615,6875.875
341.227722168,6797.875
341.524688721,6729.775
341.821624756,6656.825
342.118560791,6698.575
342.415496826,6791.875
342.712402344,6899.2
343.009246826,7080.125
343.306121826,7204.25
343.602966309,7246.3
343.899810791,7353.775
344.196624756,7411.425
344.493438721,7442.025
344.79019165,7504.95
345.086975098,7554.9
345.383758545,7611.45
345.680480957,7587.25
345.977203369,7595.175
346.273956299,7645.65
346.570617676,7629.175
346.86730957,7664.45
347.163970947,7621.575
347.460601807,7671.725
347.757232666,7692.4
348.053894043,7650.75
348.350463867,7571.05
348.647064209,7573.45
348.943634033,7570.6
349.24017334,7554.075
349.536712646,7504.9
349.833251953,7509.725
350.129760742,7490.45
350.426208496,7475.0
350.722747803,7446.675
351.019195557,7447.325
351.315612793,7369.125
351.612060547,7340.675
351.908508301,7279.025
352.204864502,7208.3
352.501281738,7166.825
352.797637939,7085.4
353.093963623,7001.925
353.390319824,6943.625
353.686645508,6831.825
353.982940674,6784.9
354.27923584,6731.75
354.575531006,6686.975
354.871765137,6655.275
355.167999268,6609.45
355.464233398,6618.55
355.760437012,6631.975
356.056640625,6619.85
356.352813721,6636.575
356.648956299,6638.275
356.945129395,6650.1
357.241271973,6637.85
357.537384033,6662.875
357.833496094,6594.275
358.129577637,6572.85
358.425628662,6569.05
358.721679688,6522.575
359.017730713,6501.75
359.313720703,6425.425
359.609710693,6394.825
359.905761719,6334.65
360.201721191,6313.025
360.497650146,6245.975
360.793609619,6222.625
361.089538574,6116.7
361.385437012,6015.975
361.681365967,5963.3
361.977233887,5934.575
362.273071289,5869.0
362.568908691,5762.3
362.864746094,5632.175
363.160552979,5510.85
363.456359863,5281.5
363.752166748,5152.025
364.047912598,5054.25
364.343658447,5020.875
364.639434814,5061.75
364.935119629,5081.225
365.230834961,5143.4
365.526550293,5184.55
365.822174072,5191.175
366.117858887,5214.15
366.413482666,5247.55
366.709075928,5273.75
367.004730225,5172.2
367.300292969,5158.375
367.595855713,5206.925
367.891448975,5084.45
368.186981201,4962.575
368.482513428,4918.525
368.778015137,4922.325
369.073547363,4852.55
369.36895752,4871.5
369.664428711,4763.1
369.95993042,4657.9
370.255310059,4607.2
370.550720215,4572.6
370.846160889,4523.175
371.14151001,4474.175
371.436859131,4445.325
371.73223877,4446.775
372.027557373,4393.75
372.322875977,4328.85
372.618164062,4293.25
372.913482666,4250.95
373.208709717,4243.825
373.503967285,4157.35
373.799194336,4130.275
374.094421387,4108.125
374.389648438,4094.75
374.684844971,4070.65
374.979980469,4107.2
375.275146484,4137.175
375.570281982,4135.575
375.865386963,4145.075
376.160522461,4087.525
376.455596924,4101.9
376.750640869,4194.45
377.045715332,4187.75
377.340759277,4219.675
377.635772705,4289.525
377.93081665,4322.325
378.225769043,4375.9
378.520751953,4443.575
378.815734863,4392.175
379.110656738,4561.725
379.405548096,4727.25
379.700500488,4579.975
379.995391846,4345.2
380.290252686,4405.875
380.585083008,4504.75
380.879974365,4546.9
381.17477417,4453.875
381.469543457,4390.075
381.764404297,4375.525
382.059143066,4420.875
382.353912354,4490.775
382.648651123,4590.15
382.943389893,4544.175
383.238067627,4387.575
383.532775879,4372.575
383.827484131,4319.575
384.12210083,4334.275
384.416778564,4257.025
384.711425781,4162.525
385.006011963,4188.65
385.300628662,4182.7
385.595184326,4250.325
385.88973999,4345.575
386.184295654,4443.45
386.478820801,4518.475
386.77331543,4608.275
387.067840576,4733.625
387.362335205,4841.95
387.656768799,4907.85
387.951202393,4925.025
388.245635986,4985.875
388.540039062,5084.35
388.834472656,5142.7
389.128875732,5031.475
389.423187256,4798.4
389.717559814,4763.5
390.011871338,4852.475
390.306182861,4887.4
390.600463867,4892.05
390.894775391,4971.95
391.189025879,4989.7
391.48324585,5012.675
391.777526855,5035.525
392.071685791,5263.85
392.365875244,5343.625
392.660064697,5423.8
392.95425415,5757.3
393.248382568,5755.6
393.542510986,5270.675
393.836608887,5085.375
394.130706787,5080.575
394.424804688,5009.25
394.71887207,5162.725
395.012878418,5112.85
395.306915283,4999.025
395.600921631,4948.45
395.894927979,4898.55
396.188903809,4950.35
396.482879639,4968.6
396.776794434,5169.95
397.070739746,5116.8
397.364654541,5166.625
397.658538818,5534.6
397.952423096,5572.275
398.246307373,5523.625
398.540100098,6097.0
398.833953857,5961.6
399.127746582,5453.075
399.421508789,5479.0
399.715301514,5415.075
400.009063721,5319.275
400.30279541,5171.575
400.596496582,5079.525
400.890258789,5234.125
401.183929443,5347.45
401.47756958,5226.325
401.771240234,4964.525
402.064880371,4993.275
402.35848999,5045.85
402.652130127,4925.425
402.945678711,5011.4
403.239257812,4970.05
403.532775879,4905.4
403.82635498,4944.175
404.119842529,4877.15
404.413360596,4855.525
404.706848145,4927.65
405.000274658,4845.4
405.293762207,4928.175
405.587188721,4993.6
405.880584717,4807.25
406.17401123,4641.975
406.467407227,4419.3
406.760742188,4447.675
407.054107666,4463.2
407.347442627,4418.75
407.640716553,4387.075
407.934051514,4435.9
408.227325439,4516.2
408.520568848,4725.475
408.813842773,4840.575
409.107086182,4619.45
409.400238037,4568.525
409.693450928,4499.85
409.986633301,4642.725
410.279754639,4534.375
410.572875977,4244.35
410.86605835,4170.825
411.159118652,4189.075
411.452209473,4214.0
411.745330811,4054.15
412.038360596,3973.15
412.331390381,4014.55
412.624420166,4062.65
412.917388916,3977.95
413.210388184,3786.025
413.503387451,3758.525
413.796295166,3644.35
414.089233398,3483.85
414.382141113,3402.05
414.675048828,3376.4
414.967926025,3406.15
415.260803223,3370.575
415.55368042,3380.15
415.846466064,3340.6
416.139282227,3442.725
416.432098389,3558.625
416.724853516,3549.3
417.017608643,3479.3
417.31036377,3486.4
417.603088379,3627.7
417.895782471,3603.0
418.188476562,3586.425
418.481140137,3648.625
418.773803711,3688.9
419.066436768,3681.3
419.359039307,3761.6
419.651641846,3760.075
419.944244385,3758.375
420.236816406,3712.85
420.529327393,3934.025
420.821899414,4013.275
421.114379883,3953.0
421.406860352,4234.85
421.699371338,4448.025
421.991821289,4412.7
422.284240723,4186.0
422.576721191,4032.9
422.869110107,3928.475
423.161468506,3863.6
423.453857422,3918.325
423.74621582,3787.925
424.038543701,3651.75
424.330871582,3611.9
424.623168945,3545.475
424.915435791,3700.075
425.207702637,3648.85
425.499969482,3590.025
425.792205811,3537.675
426.084411621,3274.575
426.376617432,3358.725
426.668762207,3428.4
426.9609375,3298.9
427.253082275,3432.4
427.545196533,3865.0
427.837310791,3582.475
428.129425049,3264.65
428.421447754,3509.7
428.713531494,3495.95
429.005554199,3484.975
429.297576904,3507.425
429.589599609,3953.45
429.881561279,4276.925
430.173522949,4049.25
430.465484619,4008.45
430.757415771,4086.925
431.049316406,3837.1
431.341186523,3602.025
431.633117676,3488.5
431.924957275,3177.55
432.21673584,3069.2
432.508636475,3229.025
432.800415039,3240.55
433.092163086,3137.075
433.383972168,3118.325
433.675689697,3853.225
433.967437744,4370.1
434.259155273,3387.075
434.550872803,3048.4
434.842498779,3092.25
435.134185791,3235.575
435.425842285,3256.175
435.717437744,3152.975
436.009063721,2965.5
436.30065918,3114.0
436.592224121,3478.625
436.883758545,3272.1
437.175323486,2989.35
437.466827393,2988.05
437.758331299,2997.125
438.049804688,3005.875
438.341247559,3095.45
438.63269043,3162.175
438.924163818,3157.025
439.215515137,3109.25
439.50692749,2998.775
439.798309326,3013.7
440.089660645,3020.975
440.380981445,2927.325
440.672332764,2911.2
440.963623047,3197.225
441.254882812,3672.2
441.546173096,3874.85
441.837402344,3623.125
442.128631592,3416.225
442.41986084,3400.475
442.711029053,3260.525
443.002197266,3348.15
443.293365479,3524.5
443.584503174,3669.1
443.875610352,3621.975
444.166717529,3370.125
444.457794189,3411.375
444.748840332,3411.75
445.039916992,3361.8
445.330932617,3456.95
445.621948242,3286.65
445.912963867,3080.0
446.203918457,3336.225
446.494812012,3578.125
446.785827637,3361.45
447.076721191,3160.8
447.367584229,3152.05
447.658447266,3128.675
447.949371338,3175.8
448.24017334,3046.65
448.530975342,2975.525
448.821838379,3144.175
449.112579346,3229.0
449.40335083,3155.875
449.694152832,3183.725
449.984863281,3199.825
450.27557373,3117.725
450.56628418,3200.425
450.856933594,3207.825
451.147583008,3034.725
451.438262939,2922.175
451.728881836,3147.975
452.019470215,3246.2
452.310089111,3015.95
452.600646973,3043.675
452.891174316,3118.525
453.181732178,2931.8
453.472229004,2801.125
453.762695312,2902.625
454.053222656,2948.975
454.343658447,2800.45
454.634063721,2731.15
454.924530029,2912.3
455.214935303,3067.125
455.505279541,3138.6
455.795715332,2996.55
456.086029053,2785.1
456.376312256,2761.975
456.666687012,2807.45
456.956939697,2896.45
457.247192383,2917.7
457.537445068,2979.95
457.827728271,3192.55
458.117919922,3091.5
458.408081055,3032.075
458.698303223,3203.775
458.988433838,3137.95
459.278564453,2971.575
459.568725586,3262.0
459.858825684,3387.4
460.148864746,3043.0
460.438995361,3003.225
460.729034424,3061.425
461.019042969,3075.275
461.309082031,3280.075
461.599060059,3163.325
461.889007568,2676.9
462.179016113,2486.2
462.468933105,2728.775
462.75881958,2863.725
463.048736572,2594.95
463.338592529,2859.7
463.628448486,3237.575
463.918365479,2937.95
464.2081604,3117.0
464.497924805,3083.6
464.787780762,3214.725
465.077514648,3517.125
465.367218018,3107.25
465.657012939,3346.3
465.946685791,3759.275
466.236358643,3336.15
466.526092529,2784.225
466.815734863,2776.325
467.105316162,2692.725
467.394927979,2738.375
467.684570312,2592.85
467.974121094,2689.9
468.263671875,2806.775
468.553222656,2566.325
468.842773438,2466.8
469.132232666,2338.125
469.42175293,2377.35
469.711212158,2351.025
470.000640869,2205.25
470.290100098,2281.7
470.579498291,2307.45
470.868835449,2323.575
471.158294678,2276.375
471.447601318,2262.125
471.736907959,2332.9
472.026275635,2390.675
472.315551758,2379.35
472.604797363,2365.25
472.894104004,2497.625
473.183319092,2623.85
473.47253418,2616.175
473.761779785,2614.2
474.05090332,2520.425
474.340087891,2477.475
474.629241943,2416.7
474.918365479,2600.825
475.207427979,2895.0
475.496551514,2935.85
475.785614014,2645.525
476.074645996,2417.675
476.363708496,2521.625
476.652679443,2655.7
476.941650391,2477.575
477.230682373,2315.275
477.519622803,2322.175
477.808502197,2480.725
478.097412109,2756.625
478.386352539,2722.85
478.675201416,2429.625
478.964050293,2306.35
479.25289917,2520.8
479.541717529,2597.0
479.830474854,2408.875
480.11932373,2798.475
480.408050537,2984.825
480.696777344,2553.35
480.985534668,2435.05
481.274200439,2520.75
481.562866211,2796.925
481.851593018,2818.3
482.140197754,2748.3
482.428833008,2576.025
482.717468262,2349.975
483.006011963,2407.375
483.294586182,2525.05
483.5831604,2564.85
483.871673584,2426.475
484.16015625,2578.7
484.448699951,2835.65
484.7371521,2869.275
485.02557373,2889.35
485.314025879,2595.175
485.602416992,4030.25
485.890777588,14243.475
486.179199219,12739.075
486.467559814,3431.925
486.755859375,2490.925
487.044219971,2900.075
487.332519531,3114.175
487.620758057,2664.525
487.908966064,2400.025
488.197265625,2174.15
488.485473633,2062.15
488.773651123,2193.05
489.061859131,2188.525
489.350006104,2148.125
489.638122559,2068.725
489.926300049,2091.275
490.214355469,2035.15
490.502441406,1981.1
490.790527344,1916.75
491.078552246,2117.4
491.366546631,2114.45
491.654602051,1872.425
491.942565918,1947.425
492.230499268,1997.525
492.518493652,1954.0
492.806396484,1992.825
493.094268799,1898.15
493.382202148,1944.5
493.670074463,2063.3
493.957885742,1908.45
494.245727539,1888.05
494.533508301,2087.825
494.821289062,1961.875
495.109100342,1789.325
495.396850586,1746.575
495.684539795,1694.075
495.972290039,1928.275
496.25994873,2289.15
496.547607422,2310.025
496.835296631,2116.025
497.122894287,1766.475
497.410522461,1669.8
497.6980896,1679.05
497.985687256,1637.325
498.273223877,1756.575
498.560760498,1835.325
498.848266602,1867.075
499.135772705,1820.35
499.423217773,1869.975
499.710693359,1992.3
499.998138428,1927.075
500.285522461,1742.55
500.572937012,1659.55
500.860290527,1719.075
501.147644043,1830.225
501.434997559,2073.025
501.722290039,1923.0
502.00958252,1675.7
502.296875,1959.9
502.584106445,1953.525
502.871337891,1755.7
503.158599854,1825.05
503.445770264,1920.875
503.732910156,1900.875
504.020141602,1700.075
504.307220459,1669.9
504.594329834,1718.075
504.881469727,1632.325
505.168518066,1725.1
505.455535889,1786.575
505.742614746,1658.8
506.029632568,1590.075
506.316589355,1792.125
506.603637695,1889.675
506.890563965,1674.45
507.177459717,1497.35
507.464385986,1406.625
507.751312256,1651.475
508.038146973,1741.875
508.325012207,1586.625
508.611877441,1655.875
508.898681641,1669.675
509.185424805,1487.15
509.472259521,1441.55
509.759002686,1537.55
510.045715332,1565.425
510.332458496,1517.525
510.619140625,1577.725
510.905761719,1481.0
511.192504883,1474.95
511.479095459,1515.9
511.765686035,1474.9
512.052307129,1380.425
512.338928223,1320.675
512.625427246,1376.5
512.91204834,1442.875
513.198486328,1426.875
513.484985352,1383.125
513.77142334,1307.0
514.057922363,1362.475
514.344299316,1357.975
514.63079834,1305.35
514.917175293,1287.9
515.203552246,1191.65
515.489868164,1172.725
515.776245117,1294.675
516.0625,1342.125
516.348815918,1246.325
516.635070801,1284.025
516.921325684,1343.975
517.207580566,1270.925
517.493774414,1169.125
517.779968262,1183.625
518.066101074,1218.15
518.352294922,1167.075
518.638366699,1172.525
518.924499512,1261.7
519.210632324,1349.35
519.496643066,1305.65
519.782714844,1199.225
520.068786621,1163.325
520.354736328,1112.8
520.640686035,1066.4
520.926757812,1124.9
521.212646484,1196.725
521.498535156,1209.075
521.784484863,1145.975
522.0703125,1075.975
522.356262207,1105.475
522.642089844,1181.0
522.927856445,1175.8
523.213684082,1170.7
523.499511719,1161.65
523.78527832,1195.7
524.070983887,1253.2
524.356750488,1228.275
524.64239502,1180.05
524.928039551,1183.55
525.213806152,1202.6
525.499389648,1188.675
525.784973145,1218.125
526.070617676,1265.475
526.356140137,1232.525
526.641723633,1232.15
526.927307129,1302.325
527.212768555,1312.175
527.498291016,1292.425
527.783752441,1284.125
528.069213867,1261.475
528.354675293,1280.8
528.640014648,1460.05
528.925476074,1537.575
529.21081543,1450.675
529.496154785,1422.175
529.781555176,1387.8
530.066833496,1406.4
530.352050781,1434.0
530.637390137,1425.675
530.922607422,1416.1
531.207824707,1416.15
531.493041992,1403.225
531.778198242,1463.625
532.063354492,1446.275
532.348571777,1382.925
532.633666992,1401.15
532.918762207,1491.275
533.203857422,1593.65
533.488891602,1605.75
533.773925781,1551.875
534.059020996,1520.15
534.343933105,1559.6
534.628967285,1529.775
534.91394043,1541.925
535.198852539,1562.7
535.483703613,1538.275
535.768676758,1469.575
536.053527832,1474.375
536.338317871,1427.575
536.62322998,1355.675
536.90802002,1336.075
537.192810059,1366.85
537.477539062,1442.55
537.762329102,1484.6
538.047058105,1530.275
538.331726074,1560.125
538.616455078,1539.2
538.901123047,1522.625
539.18572998,1570.8
539.470397949,1574.925
539.755004883,1557.85
540.039550781,1522.75
540.32409668,1473.25
540.608703613,1525.0
540.893188477,1629.15
541.17767334,1651.325
541.462158203,1643.75
541.746643066,1575.75
542.031066895,1628.8
542.315429688,1676.875
542.59979248,1673.75
542.884216309,1655.35
543.168579102,1646.2
543.452941895,1657.525
543.737243652,1708.975
544.021484375,1764.675
544.305725098,1747.925
544.590026855,1728.875
544.874267578,1738.7
545.158447266,1813.95
545.442626953,1725.175
545.726806641,1609.625
546.010925293,1647.325
546.29510498,1670.4
546.579162598,1679.475
546.863220215,1698.0
547.147277832,1787.85
547.431335449,1868.325
547.715332031,1943.05
547.999328613,2062.0
548.283325195,2061.375
548.567260742,1907.275
548.851135254,1873.55
549.135070801,1840.6
549.419006348,1739.775
549.702819824,1851.775
549.986755371,1930.225
550.270507812,1881.025
550.554321289,1933.55
550.83807373,1954.95
551.121826172,1899.025
551.405517578,1922.375
551.689331055,2033.85
551.973022461,2292.325
552.256652832,2338.475
552.540344238,2235.725
552.823974609,2207.95
553.107543945,2210.475
553.391174316,2255.15
553.674743652,2331.8
553.958251953,2343.0
554.241821289,2346.55
554.525268555,2277.15
554.808776855,2272.275
555.092285156,2472.25
555.375671387,2566.125
555.659057617,2541.2
555.942504883,2596.275
556.225891113,2624.825
556.509216309,2593.8
556.792541504,2505.875
557.075866699,2560.275
557.359130859,2612.95
557.64239502,2605.375
557.92565918,2694.15
558.208862305,2657.6
558.49206543,2589.7
558.77532959,2620.325
559.058410645,2679.075
559.341552734,2659.4
559.624694824,2717.875
559.907775879,2789.3
560.190856934,2924.975
560.473937988,2914.15
560.756896973,2948.2
561.039978027,2987.825
561.322937012,2946.2
561.605895996,2929.675
561.88885498,2880.325
562.171813965,2919.425
562.454650879,2885.25
562.737548828,2933.8
563.020446777,3003.85
563.303283691,3029.35
563.58605957,3068.0
563.868896484,3074.35
564.151672363,3128.075
564.434387207,3159.35
564.717163086,3120.775
564.99987793,3160.025
565.282531738,3233.575
565.565185547,3174.9
565.847839355,3174.05
566.130432129,3297.525
566.413085938,3281.125
566.695678711,3298.125
566.978149414,3427.6
567.260681152,3569.6
567.543273926,3650.35
567.825744629,3543.675
568.108154297,3574.55
568.390686035,3718.775
568.673095703,3847.175
568.955505371,3894.875
569.237854004,3922.375
569.520202637,4208.55
569.802490234,4443.95
570.084838867,4410.35
570.367126465,4242.325
570.649414062,4250.6
570.93170166,4620.925
571.213928223,4707.85
571.496154785,4432.775
571.778381348,4681.225
572.06048584,4955.875
572.342590332,4471.9
572.624755859,4102.725
572.906860352,4180.325
573.188903809,4901.375
573.470947266,5166.475
573.752990723,4910.525
574.03503418,5011.625
574.317016602,5423.05
574.598937988,5197.225
574.88092041,5074.5
575.162841797,5257.775
575.444763184,4864.2
575.726623535,4600.025
576.008483887,4633.025
576.290344238,5055.225
576.572143555,5278.075
576.853881836,5339.05
577.135681152,5242.275
577.417419434,5292.425
577.699157715,6200.425
577.980895996,6376.65
578.262573242,5695.075
578.544128418,5177.875
578.825866699,5138.25
579.107421875,4795.9
579.388977051,4977.125
579.670593262,5402.95
579.952148438,5224.6
580.233642578,5364.45
580.515197754,5455.525
580.796691895,5115.7
581.078125,5312.525
581.359619141,6929.125
581.640991211,7025.075
581.922363281,6052.025
582.203796387,6112.9
582.485107422,5717.025
582.766418457,5303.95
583.047790527,5141.425
583.329040527,5019.1
583.610290527,4885.4
583.891540527,5001.875
584.172790527,5322.425
584.453918457,5363.15
584.735107422,5409.05
585.016235352,5899.1
585.297363281,5832.425
585.578552246,5641.45
585.859619141,5566.6
586.140625,5330.3
586.421630859,5171.525
586.702697754,5216.075
586.983642578,5471.0
587.264648438,5644.875
587.545654297,5580.7
587.826477051,5519.825
588.107421875,5325.6
588.388305664,5349.825
588.669189453,5447.9
588.950012207,5283.975
589.230834961,5189.375
589.511657715,5281.575
589.792358398,5364.75
590.073120117,5382.5
590.353881836,5350.225
590.63458252,5381.05
590.915283203,5329.375
591.195922852,5310.975
591.4765625,5365.975
591.757202148,5412.25
592.037780762,5388.85
592.31829834,5392.525
592.598937988,5619.975
592.879394531,5799.075
593.159912109,5693.35
593.440429688,5632.2
593.720825195,5614.675
594.001281738,5596.775
594.281677246,5493.225
594.562072754,5519.975
594.842407227,5628.325
595.122802734,5672.625
595.403137207,5626.8
595.683410645,5603.625
595.963623047,5597.225
596.243896484,5543.075
596.524169922,5538.9
596.804382324,5566.0
597.084533691,5595.975
597.364746094,5633.4
597.644836426,5660.775
597.924987793,5633.475
598.205078125,5603.075
598.485107422,5629.9
598.765197754,5761.375
599.045227051,5790.425
599.325195312,5727.325
599.605224609,5649.425
599.885192871,5697.2
600.165100098,5743.075
600.445007324,5717.625
600.724914551,5709.2
601.004760742,5694.0
601.284667969,5733.5
601.56451416,5688.325
601.844238281,5692.95
602.124084473,5705.75
602.403808594,5717.725
602.683532715,5732.375
602.963256836,5711.575
603.242919922,5757.2
603.522583008,5787.35
603.802246094,5764.175
604.081848145,5743.9
604.36138916,5701.175
604.641052246,5757.575
604.920532227,5718.25
605.200073242,5742.8
605.479614258,5764.325
605.759094238,5811.35
606.038574219,5806.125
606.317932129,5737.7
606.597412109,5748.4
606.87677002,5757.05
607.15612793,5795.525
607.435546875,5797.325
607.714782715,5781.275
607.99407959,5748.8
608.273376465,5731.3
608.552612305,5773.35
608.831848145,5769.425
609.111083984,5764.975
609.390258789,5739.875
609.669433594,5729.175
609.948608398,5812.1
610.227722168,5776.0
610.506713867,5741.375
610.785888672,5752.5
611.064880371,5748.45
611.34387207,5750.025
611.622924805,5762.0
611.901916504,5775.1
612.180847168,5708.125
612.459777832,5716.525
612.738647461,5718.05
613.01751709,5694.075
613.296447754,5637.525
613.575317383,5560.975
613.854064941,5530.775
614.132873535,5447.475
614.411621094,5404.625
614.690368652,5358.775
614.969177246,5306.425
615.247802734,5227.575
615.526489258,5202.325
615.805175781,5076.5
616.08380127,4957.825
616.362365723,4870.125
616.640991211,4824.55
616.919555664,4774.6
617.198059082,4900.25
617.4765625,5178.75
617.755126953,5330.95
618.033569336,5334.7
618.311950684,5341.15
618.590454102,5339.275
618.868774414,5298.1
619.147155762,5331.05
619.425598145,5298.85
619.703857422,5308.525
619.982177734,5315.15
620.260498047,5315.45
620.538757324,5304.4
620.816955566,5266.85
621.095214844,5213.45
621.373413086,5243.05
621.651550293,5292.7
621.929748535,5305.475
622.207824707,5305.35
622.485900879,5354.35
622.764038086,5339.5
623.042053223,5359.325
623.320007324,5391.775
623.598083496,5384.45
623.876037598,5353.6
624.153991699,5403.7
624.432006836,5395.35
624.709838867,5415.775
624.987731934,5388.5
625.265563965,5394.4
625.543395996,5409.325
625.821228027,5452.775
626.098999023,5464.65
626.376831055,5513.1
626.654541016,5546.025
626.932250977,5537.85
627.209960938,5600.7
627.487670898,5625.35
627.765319824,5637.95
628.04296875,5630.725
628.320495605,5661.0
628.598083496,5639.95
628.875671387,5675.625
629.153259277,5731.775
629.430725098,5769.825
629.708251953,5761.0
629.985656738,5777.725
630.263122559,5815.125
630.540588379,5854.3
630.817932129,5876.575
631.095275879,5902.45
631.372680664,5931.75
631.649963379,5999.0
631.927246094,6046.875
632.204589844,6066.85
632.481811523,6116.275
632.759033203,6229.75
633.036254883,6234.85
633.313415527,6314.85
633.590576172,6359.875
633.867736816,6486.4
634.144836426,6528.975
634.421875,6589.3
634.698913574,6653.8
634.976013184,6694.6
635.252990723,6794.325
635.529968262,6799.675
635.807006836,6885.225
636.08392334,6853.25
636.360839844,6780.65
636.637756348,6670.35
636.914611816,6652.4
637.191467285,6614.175
637.468261719,6685.45
637.745056152,6672.225
638.021789551,6677.475
638.298583984,6712.75
638.575317383,6765.275
638.851989746,6745.975
639.12878418,6765.9
639.405395508,6743.675
639.682006836,6795.275
639.958618164,6796.4
640.235229492,6761.725
640.511779785,6807.975
640.788330078,6782.5
641.064880371,6790.975
641.341308594,6768.275
641.617797852,6764.725
641.894226074,6788.425
642.170654297,6804.875
642.44708252,6795.675
642.723388672,6781.975
642.999755859,6772.75
643.276123047,6791.275
643.552429199,6769.8
643.828674316,6806.125
644.104919434,6773.0
644.381164551,6744.95
644.657348633,6750.1
644.933532715,6740.65
645.209716797,6743.3
645.485839844,6739.75
645.761901855,6746.9
646.038024902,6723.35
646.314086914,6778.15
646.590087891,6747.65
646.866149902,6784.05
647.142150879,6732.45
647.41809082,6701.15
647.694030762,6692.075
647.969970703,6719.25
648.245788574,6731.75
648.521728516,6721.75
648.797546387,6710.6
649.073303223,6756.275
649.349182129,6716.95
649.624938965,6712.825
649.900634766,6715.375
650.176391602,6710.125
650.452087402,6686.45
650.727783203,6681.975
651.003479004,6685.9
651.279052734,6690.65
651.554626465,6683.85
651.83026123,6658.85
652.105773926,6703.15
652.381286621,6671.6
652.656860352,6657.45
652.932312012,6692.35
653.207763672,6691.5
653.483215332,6721.4
653.758605957,6724.125
654.033935547,6727.7
654.309326172,6704.25
654.584716797,6747.725
654.859985352,6709.8
655.135253906,6753.425
655.410583496,6756.9
655.685791016,7801.675
655.9609375,12137.1
656.236206055,11862.125
656.511291504,7866.925
656.786437988,6916.65
657.061645508,6817.225
657.336669922,6793.0
657.611694336,6827.925
657.886779785,6850.55
658.161804199,6896.75
658.436828613,6847.8
658.711791992,6856.7
658.986755371,6883.4
659.261657715,6907.15
659.536621094,6911.7
659.811401367,6917.475
660.086303711,6931.15
660.36114502,6911.75
660.635864258,6918.35
660.910644531,6946.4
661.185424805,6941.125
661.460205078,6995.825
661.734863281,6974.325
662.009521484,6974.575
662.284179688,6995.825
662.558776855,7015.0
662.833435059,7073.05
663.108032227,7050.8
663.382568359,7064.675
663.657043457,7101.225
663.93157959,7146.225
664.206054688,7089.1
664.48046875,7146.975
664.755004883,7167.65
665.02935791,7188.1
665.303710938,7219.7
665.578125,7231.75
665.852416992,7222.625
666.126708984,7225.05
666.401062012,7240.85
666.675292969,7280.025
666.949462891,7293.15
667.223754883,7277.375
667.497924805,7320.175
667.772094727,7358.325
668.046264648,7303.45
668.3203125,7389.6
668.594421387,7402.925
668.868469238,7412.225
669.14251709,7393.775
669.416503906,7446.175
669.690551758,7448.225
669.964477539,7480.175
670.23840332,7475.125
670.512329102,7494.95
670.786254883,7455.725
671.060058594,7522.5
671.333984375,7540.925
671.607788086,7570.3
671.881530762,7589.275
672.155334473,7622.6
672.429077148,7616.85
672.702758789,7637.6
672.97644043,7630.3
673.25012207,7653.025
673.523742676,7619.85
673.797302246,7654.675
674.070922852,7707.725
674.344482422,7696.475
674.618041992,7702.75
674.891601562,7694.425
675.165100098,7727.525
675.438476562,7718.9
675.711975098,7741.25
675.985412598,7737.25
676.258789062,7736.55
676.532165527,7779.725
676.805480957,7787.95
677.078796387,7790.625
677.352111816,7819.925
677.625366211,7821.875
677.898620605,7815.675
678.171875,7869.825
678.445007324,7856.55
678.718200684,7884.175
678.991394043,7876.65
679.264404297,7875.175
679.537536621,7938.5
679.81060791,7937.425
680.083679199,7935.45
680.356689453,7937.675
680.629699707,7956.175
680.902648926,7922.55
681.175598145,7998.35
681.448547363,7997.75
681.721435547,7974.075
681.99420166,8000.575
682.267150879,7995.55
682.539916992,8071.275
682.812744141,8032.4
683.085510254,8008.025
683.358215332,8030.1
683.63092041,8009.225
683.903625488,8045.15
684.176330566,8033.7
684.448913574,8024.375
684.721557617,8026.45
684.99420166,8093.675
685.266662598,8078.425
685.539245605,8073.925
685.811767578,8123.275
686.084289551,8146.275
686.356689453,8178.375
686.629150391,8209.3
686.901550293,8230.05
687.17401123,8221.675
687.446350098,8238.475
687.718688965,8256.575
687.990966797,8304.675
688.263305664,8312.45
688.535522461,8291.6
688.807739258,8311.225
689.079956055,8382.775
689.352172852,8405.575
689.624328613,8377.075
689.896484375,8389.875
690.168518066,8383.65
690.440612793,8419.75
690.71270752,8450.8
690.984741211,8433.125
691.256713867,8495.0
691.528747559,8480.825
691.800720215,8486.55
692.072631836,8528.0
692.344543457,8569.85
692.616394043,8578.225
692.888244629,8581.475
693.160095215,8625.15
693.431945801,8649.625
693.703674316,8580.575
693.975463867,8627.05
694.247131348,8638.825
694.518859863,8647.325
694.790588379,8670.25
695.062255859,8689.575
695.33380127,8680.225
695.60546875,8670.1
695.87701416,8711.8
696.148498535,8722.425
696.42010498,8765.225
696.691589355,8777.825
696.96307373,8790.425
697.234558105,8863.05
697.50592041,8834.075
697.777282715,8841.675
698.048706055,8843.6
698.320068359,8915.975
698.591308594,8886.525
698.862670898,8897.275
699.133972168,8939.3
699.405151367,8914.55
699.676391602,8952.7
699.947570801,8928.15
700.21875,8958.4
700.489868164,8979.05
700.761047363,8991.95
701.032104492,9028.15
701.303100586,8975.6
701.57421875,9023.9
701.845214844,9035.625
702.116149902,9067.1
702.387207031,9060.125
702.65814209,9092.725
702.928955078,9105.35
703.199951172,9077.175
703.47076416,9058.0
703.741577148,9066.6
704.012451172,9125.15
704.28314209,9163.65
704.553955078,9124.65
704.824707031,9182.775
705.095397949,9197.125
705.366027832,9189.475
705.63671875,9232.925
705.907348633,9197.55
706.17791748,9217.65
706.448486328,9227.55
706.719055176,9265.25
706.989562988,9257.0
707.260131836,9287.55
707.530517578,9314.15
707.800964355,9315.675
708.071411133,9258.65
708.341796875,9286.525
708.612182617,9260.3
708.882446289,9241.35
709.152893066,9281.45
709.423156738,9314.625
709.693359375,9272.2
709.963623047,9320.225
710.233825684,9344.65
710.503967285,9316.95
710.774169922,9314.575
711.044311523,9312.425
711.31439209,9313.825
711.584533691,9352.95
711.854553223,9364.475
712.124572754,9344.825
712.39465332,9315.475
712.664611816,9370.35
712.934509277,9437.55
713.204467773,9382.65
713.474365234,9434.35
713.74420166,9425.125
714.014099121,9428.85
714.283874512,9436.925
714.553710938,9441.525
714.823486328,9444.95
715.093200684,9430.825
715.362915039,9460.125
715.632629395,9435.25
715.902282715,9422.775
716.171875,9397.425
716.441589355,9432.3
716.711181641,9386.8
716.980712891,9439.375
717.250244141,9434.175
717.519775391,9401.575
717.78918457,9412.9
718.058654785,9487.55
718.328125,9523.075
718.597473145,9484.225
718.866882324,9457.575
719.136230469,9476.275
719.405578613,9510.75
719.674865723,9508.575
719.944152832,9509.1
720.213439941,9482.675
720.48260498,9520.05
720.75177002,9532.45
721.020996094,9535.1
721.290100098,9532.25
721.559204102,9536.55
721.828308105,9556.35
722.097351074,9561.15
722.366455078,9543.2
722.635437012,9513.775
722.904418945,9496.5
723.173400879,9519.975
723.442321777,9539.925
723.711181641,9534.375
723.980102539,9560.275
724.248962402,9545.1
724.51776123,9537.225
724.786560059,9546.275
725.055358887,9573.85
725.324035645,9562.625
725.592834473,9550.95
725.86151123,9514.425
726.130187988,9543.675
726.398803711,9481.125
726.667419434,9525.55
726.935974121,9504.975
727.204528809,9479.0
727.473083496,9496.25
727.741638184,9485.3
728.010070801,9417.6
728.278564453,9418.05
728.546936035,9424.475
728.815368652,9358.05
729.08380127,9299.375
729.352111816,9270.0
729.620361328,9195.525
729.88873291,9231.25
730.156982422,9268.725
730.425231934,9297.1
730.693481445,9304.75
730.961669922,9368.1
731.229797363,9396.75
731.49798584,9417.725
731.766113281,9475.175
732.034118652,9544.55
732.302246094,9605.475
732.570251465,9666.175
732.838256836,9695.9
733.106262207,9761.775
733.374145508,9795.15
733.642089844,9795.375
733.909973145,9892.15
734.177856445,9985.45
734.445678711,10061.525
734.713562012,10158.85
734.981323242,10157.375
735.249084473,10223.925
735.516845703,10399.875
735.784545898,10482.675
736.052185059,10482.625
736.319885254,10600.325
736.587524414,10686.55
736.855102539,10733.125
737.122619629,10879.45
737.390197754,10903.425
737.657714844,11009.875
737.925170898,11080.65
738.192749023,11217.15
738.460144043,11268.3
738.727539062,11346.35
738.994995117,11437.6
739.262329102,11527.575
739.529663086,11648.275
739.79699707,11669.475
740.06427002,11716.35
740.331481934,11802.1
740.598754883,11874.65
740.865905762,11905.275
741.133056641,12053.8
741.40032959,12055.475
741.667358398,12132.45
741.934448242,12222.1
742.201599121,12223.0
742.468566895,12353.725
742.735534668,12369.0
743.002563477,12414.575
743.26953125,12410.775
743.536437988,12511.85
743.803405762,12614.35
744.0703125,12550.225
744.337097168,12650.175
744.604003906,12557.85
744.870727539,12707.6
745.137512207,12736.275
745.40423584,12755.075
745.670959473,12721.825
745.93762207,12748.175
746.204284668,12782.025
746.470947266,12809.675
746.737548828,12759.825
747.004089355,12816.4
747.270751953,12819.625
747.53717041,12866.375
747.803710938,12788.35
748.070251465,12750.975
748.336608887,12767.675
748.603027344,12748.0
748.869445801,12768.625
749.135803223,12757.45
749.402099609,12783.05
749.668457031,12803.325
749.934753418,12740.3
750.20098877,12718.025
750.467224121,12768.25
750.733459473,12724.675
750.999572754,12701.1
751.26574707,12593.475
751.531860352,12664.375
751.797912598,12601.75
752.064025879,12546.75
752.330078125,12564.5
752.596069336,12524.55
752.862060547,12480.425
753.127990723,12497.95
753.393920898,12462.7
753.659912109,12414.95
753.925720215,12464.3
754.19152832,12414.65
754.457397461,12349.15
754.723144531,12301.75
754.988952637,12270.825
755.254699707,12305.85
755.520385742,12340.6
755.786071777,12326.3
756.051696777,12292.425
756.317382812,12210.225
756.582946777,12174.125
756.848510742,12190.025
757.114074707,12160.425
757.379577637,12153.4
757.645080566,12223.8
757.910583496,12185.175
758.175964355,12098.075
758.441345215,12090.7
758.706848145,11882.775
758.972106934,11933.55
759.237426758,11966.55
759.502807617,11992.675
759.768005371,11928.05
760.03326416,11929.5
760.298522949,11826.95
760.563659668,11865.0
760.828857422,11858.075
761.093994141,11840.95
761.359130859,11795.95
761.624206543,11764.225
761.889282227,11707.025
762.15423584,11741.275
762.419250488,11715.525
762.684265137,11648.4
762.949157715,11599.65
763.214050293,11607.825
763.479003906,11613.675
763.743835449,11559.6
764.008666992,11515.675
764.2734375,11519.55
764.538208008,11588.9
764.802978516,11619.625
765.067687988,11549.25
765.332397461,11538.35
765.597045898,11515.35
765.861694336,11474.2
766.126342773,11443.225
766.390930176,11397.25
766.655395508,11359.825
766.920043945,11324.95
767.184509277,11340.35
767.448974609,11337.25
767.713439941,11299.225
767.977783203,11242.975
768.2421875,11306.2
768.506591797,11213.025
768.770874023,11314.975
769.03515625,11247.25
769.299499512,11260.375
769.563720703,11230.75
769.827941895,11178.15
770.092163086,11165.525
770.356323242,11129.0
770.620483398,11183.1
770.88458252,11192.1
771.148681641,11175.2
771.412719727,11147.925
771.676757812,11133.45
771.940734863,11081.025
772.204711914,11064.5
772.468688965,11055.825
772.73260498,11060.775
772.996459961,11047.3
773.260314941,9866.225
773.524169922,1255.675
773.787963867,156.525
774.051696777,121.5
774.315551758,118.45
774.579223633,121.35
774.842895508,120.3
775.106567383,118.65
775.370239258,117.475
775.633789062,123.05
775.897399902,125.6
776.160949707,116.8
776.424499512,119.05
776.687988281,122.425
776.951477051,125.8
777.214904785,119.925
777.47833252,117.6
