191.299911499,101.95
191.603515625,104.3
191.907119751,95.375
192.210693359,103.45
192.514251709,99.375
192.817810059,102.7
193.121368408,102.675
193.42489624,105.925
193.728408813,99.85
194.031936646,102.875
194.33543396,95.775
194.638916016,111.875
194.94241333,94.475
195.245880127,96.725
195.549331665,96.4
195.852767944,101.575
196.156204224,194.95
196.459625244,191.05
196.763015747,190.5
197.066436768,202.3
197.369812012,192.125
197.673187256,195.875
197.9765625,187.3
198.279922485,192.2
198.583251953,187.275
198.886581421,194.1
199.18989563,197.525
199.493209839,197.325
199.79649353,184.625
200.09979248,198.55
200.403076172,192.25
200.706314087,195.1
201.009567261,191.35
201.312820435,195.175
201.616027832,184.45
201.919235229,181.8
202.222457886,184.625
202.525634766,187.25
202.828826904,182.875
203.132003784,181.65
203.435150146,184.475
203.738296509,181.05
204.041412354,178.025
204.344558716,183.125
204.647659302,190.8
204.950759888,188.875
205.253845215,185.3
205.556930542,182.85
205.859985352,186.475
206.163024902,186.3
206.466079712,189.025
206.769104004,195.125
207.072113037,187.775
207.375137329,185.175
207.678131104,186.75
207.981109619,188.675
208.284088135,184.5
208.587036133,191.85
208.889984131,190.8
209.19291687,192.8
209.495849609,191.475
209.798751831,194.225
210.101654053,189.525
210.404556274,196.975
210.707427979,188.875
211.010269165,196.8
211.31312561,198.2
211.615982056,202.1
211.918807983,197.025
212.221618652,195.0
212.524429321,194.6
212.827224731,205.1
213.130004883,198.225
213.432769775,199.25
213.735534668,198.975
214.038269043,201.7
214.341003418,203.425
214.643737793,207.75
214.946456909,206.925
215.249145508,209.95
215.551834106,212.875
215.854507446,212.35
216.157165527,213.975
216.45980835,211.825
216.762451172,217.325
217.065078735,220.75
217.36769104,219.1
217.670303345,217.925
217.972885132,225.425
218.275466919,229.175
218.578048706,223.025
218.880599976,247.85
219.183120728,254.9
219.485656738,268.825
219.788192749,295.875
220.090682983,325.8
220.393188477,366.025
220.695663452,419.275
220.998138428,463.325
221.300582886,530.625
221.603042603,584.175
221.905487061,648.175
222.207901001,724.375
222.510299683,802.825
222.812728882,888.225
223.115097046,971.55
223.41746521,1066.925
223.719848633,1151.525
224.022171021,1230.475
224.324508667,1339.8
224.626846313,1441.025
224.929168701,1527.975
225.231460571,1623.5
225.533737183,1704.425
225.836013794,1798.225
226.138290405,1878.3
226.440536499,1954.775
226.742767334,2036.35
227.044998169,2095.7
227.347213745,2179.1
227.649429321,2246.375
227.951629639,2280.3
228.253799438,2331.35
228.555953979,2368.85
228.858123779,2403.65
229.160263062,2453.95
229.462371826,2470.65
229.764511108,2486.525
230.066619873,2503.2
230.36869812,2543.8
230.670776367,2574.125
230.972854614,2583.975
231.274902344,2619.3
231.576950073,2670.9
231.878967285,2673.4
232.180999756,2706.95
232.48298645,2756.8
232.784988403,2789.2
233.086975098,2808.75
233.388946533,2848.375
233.69090271,2888.55
233.992858887,2911.025
234.294769287,2929.975
234.596694946,2952.4
234.898605347,2974.05
235.200500488,2989.875
235.502380371,3012.8
235.804244995,3014.05
236.106109619,3008.65
236.407958984,3037.225
236.709777832,3047.7
237.011581421,3042.65
237.313400269,3033.15
237.615203857,3049.825
237.916976929,3074.1
238.21875,3060.025
238.520507812,3058.775
238.822250366,3068.85
239.12399292,3058.1
239.425704956,3079.25
239.727401733,3035.95
240.02911377,3068.275
240.330780029,3025.2
240.632446289,3040.625
240.93409729,3030.55
241.23576355,3034.7
241.537384033,3039.875
241.839004517,3050.0
242.140594482,3032.2
242.442199707,3044.9
242.743774414,3049.025
243.045333862,3076.675
243.346923828,3067.5
243.648452759,3071.0
243.949966431,3086.625
244.251495361,3110.025
244.552993774,3110.1
244.854492188,3096.075
245.155975342,3097.6
245.457443237,3111.8
245.758880615,3126.325
246.060333252,3116.225
246.36177063,3125.75
246.66317749,3129.725
246.964569092,3117.9
247.265945435,3117.575
247.567337036,3121.575
247.86869812,3166.3
248.170059204,3167.05
248.471389771,3183.8
248.772705078,3204.35
249.074035645,3225.625
249.375335693,3232.025
249.676620483,3280.325
249.977890015,3331.5
250.279159546,3372.025
250.58039856,3403.8
250.881637573,3426.275
251.182876587,3478.0
251.484069824,3520.7
251.785263062,3555.475
252.086456299,3642.75
252.387619019,3657.4
252.688781738,3684.275
252.989929199,3725.4
253.291061401,3770.9
253.592178345,3813.325
253.893280029,3876.925
254.194366455,3903.45
254.49546814,3919.2
254.796524048,3955.825
255.097579956,3990.175
255.398620605,3988.45
255.699645996,4037.575
256.000640869,4045.425
256.30166626,4045.925
256.602661133,4101.375
256.903656006,4108.2
257.204589844,4090.975
257.505523682,4085.775
257.80645752,4101.325
258.107391357,4101.4
258.408294678,4104.45
258.709228516,4087.85
259.010070801,4055.9
259.310943604,4071.7
259.611846924,4044.35
259.912658691,4020.95
260.213500977,4024.4
260.514343262,4020.825
260.815124512,3977.15
261.115936279,3963.625
261.416717529,3976.9
261.717468262,3984.775
262.018218994,3953.3
262.318969727,3984.25
262.619689941,4022.9
262.920410156,4096.225
263.221130371,4120.35
263.521789551,4179.075
263.822479248,4200.85
264.123138428,4285.4
264.42376709,4326.325
264.72442627,4349.825
265.025054932,4374.225
265.325622559,4414.875
265.626251221,4450.25
265.926818848,4470.25
266.227386475,4445.7
266.527954102,4465.15
266.828460693,4504.55
267.12902832,4483.925
267.429534912,4455.65
267.730010986,4475.875
268.030517578,4475.725
268.330993652,4497.725
268.631439209,4483.625
268.931915283,4513.05
269.232299805,4508.825
269.532745361,4539.725
269.8331604,4533.7
270.133544922,4564.025
270.433929443,4603.675
270.734313965,4611.15
271.034637451,4636.65
271.334991455,4641.075
271.635314941,4731.625
271.935638428,4777.6
272.235931396,4843.725
272.536254883,4914.325
272.836486816,5000.775
273.136749268,5077.25
273.437011719,5202.1
273.737213135,5331.825
274.037445068,5440.55
274.337677002,5539.675
274.6378479,5679.65
274.938049316,5815.625
275.238220215,5937.0
275.538360596,6072.725
275.838500977,6182.5
276.138641357,6346.0
276.438751221,6435.25
276.738830566,6543.0
277.03894043,6646.75
277.338989258,6811.8
277.639038086,6937.575
277.939056396,6983.6
278.239105225,7077.175
278.539093018,7210.7
278.839141846,7300.9
279.139129639,7394.4
279.439086914,7473.275
279.739044189,7558.675
280.039001465,7664.775
280.338928223,7722.9
280.63885498,7796.2
280.938781738,7899.075
281.238647461,7949.325
281.538513184,7975.275
281.838409424,8054.925
282.138244629,8126.225
282.438079834,8156.775
282.737945557,8189.5
283.037719727,8232.325
283.337524414,8285.05
283.637298584,8300.8
283.937072754,8327.15
284.236816406,8352.825
284.536560059,8328.95
284.836303711,8362.325
285.136016846,8467.425
285.43572998,8489.25
285.735412598,8484.575
286.035064697,8455.125
286.334747314,8527.375
286.634368896,8546.625
286.933990479,8476.825
287.233642578,8443.825
287.533203125,8435.45
287.832824707,8400.525
288.132385254,8262.375
288.431945801,8152.0
288.731506348,8025.05
289.031036377,7852.6
289.330566406,7708.575
289.630065918,7685.05
289.92956543,7688.175
290.229034424,7790.45
290.528503418,7958.725
290.827941895,8130.875
291.127380371,8299.3
291.42678833,8422.825
291.726226807,8571.6
292.025604248,8591.8
292.324981689,8626.75
292.624359131,8643.3
292.923736572,8668.925
293.223052979,8708.25
293.522369385,8707.55
293.821685791,8622.05
294.12097168,8631.275
294.420257568,8588.1
294.719543457,8552.85
295.018768311,8539.7
295.318023682,8478.275
295.617248535,8419.525
295.916442871,8349.875
296.215667725,8283.0
296.514862061,8142.325
296.813995361,7898.475
297.11315918,7679.825
297.412322998,7551.35
297.711425781,7517.6
298.010559082,7683.45
298.309631348,7891.075
298.608734131,8130.0
298.907806396,8316.825
299.206848145,8475.4
299.505889893,8512.925
299.804901123,8643.5
300.103912354,8717.6
300.402954102,8807.125
300.701904297,8875.525
301.00088501,8932.8
301.299835205,9020.75
301.5987854,9028.475
301.897735596,9121.725
302.196624756,9184.875
302.495513916,9292.675
302.794403076,9288.225
303.093292236,9356.05
303.392120361,9393.05
303.690979004,9475.775
303.989837646,9545.275
304.288604736,9579.175
304.587402344,9551.325
304.886199951,9630.475
305.184967041,9660.95
305.483734131,9730.275
305.782501221,9751.375
306.081176758,9771.575
306.37991333,9766.175
306.678619385,9784.8
306.977294922,9807.0
307.275970459,9841.475
307.574645996,9863.75
307.873260498,9821.225
308.171875,9848.7
308.470489502,9830.775
308.769104004,9726.325
309.067687988,9743.45
309.366241455,9745.9
309.664794922,9699.375
309.963348389,9708.775
310.261871338,9704.7
310.560394287,9706.975
310.858856201,9735.825
311.157348633,9747.1
311.455810547,9775.1
311.754272461,9755.625
312.052703857,9855.9
312.351135254,9885.2
312.649536133,9872.675
312.947937012,9837.35
313.246307373,9903.225
313.544647217,9872.125
313.843017578,9811.1
314.141387939,9798.55
314.439697266,9833.225
314.738006592,9728.625
315.036315918,9662.225
315.334564209,9586.25
315.6328125,9520.35
315.931091309,9453.675
316.229309082,9327.35
316.527526855,9174.225
316.825744629,9143.55
317.123901367,9026.5
317.422088623,8980.85
317.720245361,8975.5
318.0184021,8973.575
318.316497803,9023.25
318.614654541,9090.1
318.912750244,9155.55
319.21081543,9147.05
319.50894165,9191.65
319.806945801,9162.425
320.104980469,9175.15
320.403045654,9169.9
320.701049805,9140.575
320.999023438,9113.25
321.297027588,9073.175
321.595001221,9048.575
321.892913818,9014.625
322.190887451,8919.875
322.488830566,8869.6
322.786712646,8822.55
323.084625244,8721.175
323.382507324,8709.775
323.680358887,8606.25
323.978210449,8517.525
324.276062012,8467.9
324.573852539,8417.775
324.871643066,8347.45
325.169464111,8269.25
325.467224121,8226.175
325.764984131,8141.45
326.062744141,8047.2
326.360473633,7975.475
326.658203125,7919.0
326.955871582,7810.65
327.253570557,7762.6
327.551239014,7706.95
327.848907471,7635.175
328.146514893,7543.7
328.444152832,7493.175
328.741790771,7423.9
329.039367676,7382.025
329.336914062,7288.625
329.634521484,7224.75
329.932067871,7181.425
330.229553223,7113.5
330.527160645,7041.7
330.824615479,6996.825
331.12210083,6894.475
331.419586182,6757.775
331.717041016,6713.75
332.014465332,6623.95
332.311920166,6619.45
332.609313965,6534.05
332.906707764,6525.8
333.204101562,6504.7
333.501495361,6542.05
333.798828125,6580.725
334.096160889,6621.95
334.39352417,6672.575
334.690795898,6707.75
334.988098145,6761.575
335.285400391,6828.325
335.582641602,6827.275
335.879882812,6879.7
336.177124023,6856.6
336.474334717,6971.1
336.77154541,6967.225
337.068725586,6964.6
337.365905762,6989.55
337.66305542,6979.175
337.960205078,7016.575
338.257324219,7017.725
338.554443359,7032.625
338.8515625,7058.375
339.148590088,7047.2
339.445648193,7068.4
339.742736816,7037.95
340.039764404,7008.55
340.336761475,6969.925
340.63381958,6908.9
340.930755615,6867.975
341.227722168,6800.625
341.524688721,6712.825
341.821624756,6665.65
342.118560791,6704.275
342.415496826,6760.025
342.712402344,6919.375
343.009246826,7062.625
343.306121826,7198.575
343.602966309,7270.2
343.899810791,7349.75
344.196624756,7440.5
344.493438721,7457.575
344.79019165,7499.325
345.086975098,7561.65
345.383758545,7610.7
345.680480957,7583.075
345.977203369,7597.375
346.273956299,7635.825
346.570617676,7646.35
346.86730957,7664.725
347.163970947,7624.45
347.460601807,7662.325
347.757232666,7684.0
348.053894043,7685.475
348.350463867,7577.575
348.647064209,7578.2
348.943634033,7550.0
349.24017334,7583.275
349.536712646,7521.5
349.833251953,7503.5
350.129760742,7469.425
350.426208496,7480.975
350.722747803,7443.725
351.019195557,7416.575
351.315612793,7394.625
351.612060547,7353.75
351.908508301,7258.875
352.204864502,7203.45
352.501281738,7159.575
352.797637939,7099.775
353.093963623,6983.725
353.390319824,6937.55
353.686645508,6854.825
353.982940674,6748.525
354.27923584,6702.525
354.575531006,6640.825
354.871765137,6652.5
355.167999268,6606.6
355.464233398,6611.275
355.760437012,6614.4
356.056640625,6631.1
356.352813721,6634.3
356.648956299,6625.65
356.945129395,6648.875
357.241271973,6627.225
357.537384033,6659.8
357.833496094,6586.45
358.129577637,6577.725
358.425628662,6549.3
358.721679688,6525.125
359.017730713,6513.525
359.313720703,6436.5
359.609710693,6421.625
359.905761719,6319.125
360.201721191,6298.05
360.497650146,6223.4
360.793609619,6177.375
361.089538574,6128.05
361.385437012,6044.325
361.681365967,5972.725
361.977233887,5909.5
362.273071289,5886.0
362.568908691,5750.65
362.864746094,5609.575
363.160552979,5473.15
363.456359863,5290.125
363.752166748,5161.925
364.047912598,5074.2
364.343658447,5003.475
364.639434814,5062.6
364.935119629,5084.95
365.230834961,5134.875
365.526550293,5171.55
365.822174072,5193.8
366.117858887,5221.95
366.413482666,5239.05
366.709075928,5264.6
367.004730225,5175.325
367.300292969,5145.85
367.595855713,5206.8
367.891448975,5094.125
368.186981201,4971.55
368.482513428,4932.7
368.778015137,4911.625
369.073547363,4869.625
369.36895752,4873.125
369.664428711,4767.85
369.95993042,4650.925
370.255310059,4595.15
370.550720215,4571.3
370.846160889,4523.9
371.14151001,4476.475
371.436859131,4456.35
371.73223877,4441.9
372.027557373,4404.0
372.322875977,4322.55
372.618164062,4277.925
372.913482666,4245.4
373.208709717,4214.8
373.503967285,4146.125
373.799194336,4116.25
374.094421387,4115.35
374.389648438,4075.95
374.684844971,4058.95
374.979980469,4126.75
375.275146484,4124.85
375.570281982,4158.375
375.865386963,4154.175
376.160522461,4081.575
376.455596924,4097.4
376.750640869,4186.175
377.045715332,4187.1
377.340759277,4238.675
377.635772705,4278.025
377.93081665,4328.85
378.225769043,4378.85
378.520751953,4453.725
378.815734863,4385.0
379.110656738,4568.075
379.405548096,4731.75
379.700500488,4584.05
379.995391846,4341.15
380.290252686,4399.0
380.585083008,4506.8
380.879974365,4545.225
381.17477417,4435.8
381.469543457,4397.65
381.764404297,4368.9
382.059143066,4412.125
382.353912354,4493.725
382.648651123,4588.825
382.943389893,4554.025
383.238067627,4385.15
383.532775879,4376.325
383.827484131,4322.225
384.12210083,4318.1
384.416778564,4261.65
384.711425781,4149.175
385.006011963,4199.4
385.300628662,4175.65
385.595184326,4239.525
385.88973999,4351.075
386.184295654,4445.05
386.478820801,4536.375
386.77331543,4620.35
387.067840576,4732.4
387.362335205,4805.975
387.656768799,4899.95
387.951202393,4934.5
388.245635986,4995.925
388.540039062,5068.825
388.834472656,5137.775
389.128875732,5031.425
389.423187256,4797.2
389.717559814,4740.425
390.011871338,4858.7
390.306182861,4868.9
390.600463867,4875.4
390.894775391,4986.775
391.189025879,4970.85
391.48324585,4980.05
391.777526855,5057.9
392.071685791,5254.0
392.365875244,5342.275
392.660064697,5413.45
392.95425415,5762.4
393.248382568,5733.925
393.542510986,5270.95
393.836608887,5074.55
394.130706787,5078.05
394.424804688,5006.1
394.71887207,5147.8
395.012878418,5096.975
395.306915283,5002.725
395.600921631,4937.1
395.894927979,4900.375
396.188903809,4970.5
396.482879639,4952.475
396.776794434,5167.2
397.070739746,5136.825
397.364654541,5150.675
397.658538818,5535.2
397.952423096,5593.6
398.246307373,5526.775
398.540100098,6085.1
398.833953857,5939.575
399.127746582,5472.85
399.421508789,5465.2
399.715301514,5402.0
400.009063721,5297.75
400.30279541,5161.95
400.596496582,5058.425
400.890258789,5236.4
401.183929443,5329.9
401.47756958,5202.025
401.771240234,4969.225
402.064880371,4982.6
402.35848999,5037.45
402.652130127,4931.125
402.945678711,5015.575
403.239257812,4953.725
403.532775879,4905.475
403.82635498,4957.1
404.119842529,4858.3
404.413360596,4846.475
404.706848145,4929.5
405.000274658,4839.35
405.293762207,4908.175
405.587188721,4981.125
405.880584717,4814.45
406.17401123,4633.325
406.467407227,4412.75
406.760742188,4437.3
407.054107666,4478.575
407.347442627,4400.1
407.640716553,4389.7
407.934051514,4449.85
408.227325439,4514.525
408.520568848,4732.55
408.813842773,4813.575
409.107086182,4612.1
409.400238037,4577.625
409.693450928,4498.825
409.986633301,4635.45
410.279754639,4534.675
410.572875977,4242.075
410.86605835,4172.65
411.159118652,4196.25
411.452209473,4204.55
411.745330811,4045.8
412.038360596,3981.925
412.331390381,4025.75
412.624420166,4063.2
412.917388916,3970.075
413.210388184,3770.0
413.503387451,3758.85
413.796295166,3647.65
414.089233398,3465.75
414.382141113,3388.425
414.675048828,3378.225
414.967926025,3414.25
415.260803223,3358.875
415.55368042,3381.375
415.846466064,3343.425
416.139282227,3429.5
416.432098389,3544.75
416.724853516,3556.0
417.017608643,3488.65
417.31036377,3511.55
417.603088379,3624.725
417.895782471,3610.975
418.188476562,3567.25
418.481140137,3637.525
418.773803711,3701.4
419.066436768,3680.85
419.359039307,3757.6
419.651641846,3753.25
419.944244385,3750.3
420.236816406,3726.375
420.529327393,3956.6
420.821899414,4019.025
421.114379883,3935.225
421.406860352,4211.9
421.699371338,4448.0
421.991821289,4416.45
422.284240723,4180.525
422.576721191,4036.075
422.869110107,3909.625
423.161468506,3872.275
423.453857422,3910.4
423.74621582,3768.65
424.038543701,3640.325
424.330871582,3605.775
424.623168945,3543.95
424.915435791,3688.0
425.207702637,3650.475
425.499969482,3607.9
425.792205811,3534.975
426.084411621,3273.2
426.376617432,3372.8
426.668762207,3443.425
426.9609375,3315.4
427.253082275,3436.525
427.545196533,3852.2
427.837310791,3579.75
428.129425049,3265.425
428.421447754,3504.175
428.713531494,3506.075
429.005554199,3490.525
429.297576904,3514.725
429.589599609,3953.25
429.881561279,4276.525
430.173522949,4057.825
430.465484619,4004.2
430.757415771,4092.975
431.049316406,3851.1
431.341186523,3603.375
431.633117676,3482.9
431.924957275,3180.6
432.21673584,3071.875
432.508636475,3222.325
432.800415039,3239.3
433.092163086,3144.3
433.383972168,3105.25
433.675689697,3857.375
433.967437744,4345.625
434.259155273,3373.2
434.550872803,3047.4
434.842498779,3109.275
435.134185791,3236.175
435.425842285,3255.75
435.717437744,3165.5
436.009063721,2975.175
436.30065918,3113.2
436.592224121,3479.55
436.883758545,3273.25
437.175323486,2996.45
437.466827393,2962.575
437.758331299,2990.725
438.049804688,3006.175
438.341247559,3078.85
438.63269043,3168.35
438.924163818,3142.925
439.215515137,3109.55
439.50692749,3014.275
439.798309326,3014.975
440.089660645,3027.125
440.380981445,2920.325
440.672332764,2916.55
440.963623047,3202.125
441.254882812,3680.55
441.546173096,3893.775
441.837402344,3607.15
442.128631592,3412.225
442.41986084,3395.25
442.711029053,3259.35
443.002197266,3330.5
443.293365479,3526.925
443.584503174,3651.75
443.875610352,3644.775
444.166717529,3353.825
444.457794189,3418.325
444.748840332,3415.675
445.039916992,3358.775
445.330932617,3460.15
445.621948242,3280.4
445.912963867,3075.575
446.203918457,3332.1
446.494812012,3570.675
446.785827637,3364.5
447.076721191,3156.875
447.367584229,3149.9
447.658447266,3118.975
447.949371338,3162.375
448.24017334,3040.975
448.530975342,2974.175
448.821838379,3136.225
449.112579346,3238.0
449.40335083,3150.475
449.694152832,3193.075
449.984863281,3195.2
450.27557373,3123.825
450.56628418,3204.1
450.856933594,3212.575
451.147583008,3042.45
451.438262939,2923.9
451.728881836,3139.575
452.019470215,3226.575
452.310089111,3035.5
452.600646973,3041.25
452.891174316,3118.975
453.181732178,2923.425
453.472229004,2791.175
453.762695312,2907.875
454.053222656,2925.425
454.343658447,2786.9
454.634063721,2735.175
454.924530029,2913.25
455.214935303,3070.05
455.505279541,3137.075
455.795715332,2991.95
456.086029053,2786.05
456.376312256,2775.15
456.666687012,2801.0
456.956939697,2915.125
457.247192383,2909.875
457.537445068,2982.025
457.827728271,3170.75
458.117919922,3099.95
458.408081055,3024.225
458.698303223,3212.2
458.988433838,3145.175
459.278564453,2957.25
459.568725586,3249.125
459.858825684,3375.575
460.148864746,3045.35
460.438995361,3003.9
460.729034424,3051.325
461.019042969,3082.7
461.309082031,3276.825
461.599060059,3157.75
461.889007568,2679.95
462.179016113,2485.75
462.468933105,2728.9
462.75881958,2857.925
463.048736572,2580.15
463.338592529,2858.425
463.628448486,3231.775
463.918365479,2923.725
464.2081604,3114.275
464.497924805,3079.225
464.787780762,3190.4
465.077514648,3508.1
465.367218018,3114.425
465.657012939,3350.775
465.946685791,3743.675
466.236358643,3356.2
466.526092529,2783.2
466.815734863,2783.975
467.105316162,2703.8
467.394927979,2725.5
467.684570312,2598.275
467.974121094,2686.025
468.263671875,2795.9
468.553222656,2561.875
468.842773438,2459.7
469.132232666,2346.025
469.42175293,2383.6
469.711212158,2352.675
470.000640869,2210.3
470.290100098,2273.725
470.579498291,2321.6
470.868835449,2317.0
471.158294678,2273.775
471.447601318,2262.975
471.736907959,2328.3
472.026275635,2407.375
472.315551758,2391.775
472.604797363,2373.825
472.894104004,2504.575
473.183319092,2624.2
473.47253418,2639.8
473.761779785,2609.3
474.05090332,2551.15
474.340087891,2480.475
474.629241943,2418.15
474.918365479,2582.45
475.207427979,2880.775
475.496551514,2924.075
475.785614014,2635.525
476.074645996,2416.825
476.363708496,2519.425
476.652679443,2674.825
476.941650391,2485.825
477.230682373,2316.9
477.519622803,2318.45
477.808502197,2486.925
478.097412109,2766.9
478.386352539,2708.75
478.675201416,2424.65
478.964050293,2310.075
479.25289917,2517.8
479.541717529,2581.825
479.830474854,2417.475
480.11932373,2779.375
480.408050537,2967.05
480.696777344,2578.775
480.985534668,2442.35
481.274200439,2532.65
481.562866211,2771.05
481.851593018,2817.775
482.140197754,2756.375
482.428833008,2576.15
482.717468262,2365.7
483.006011963,2402.45
483.294586182,2528.4
483.5831604,2569.575
483.871673584,2421.775
484.16015625,2583.85
484.448699951,2823.45
484.7371521,2872.4
485.02557373,2892.425
485.314025879,2586.425
485.602416992,4024.15
485.890777588,14225.275
486.179199219,12745.5
486.467559814,3420.825
486.755859375,2477.325
487.044219971,2912.05
487.332519531,3087.125
487.620758057,2678.5
487.908966064,2381.325
488.197265625,2179.275
488.485473633,2064.075
488.773651123,2197.3
489.061859131,2173.225
489.350006104,2135.125
489.638122559,2062.85
489.926300049,2085.975
490.214355469,2034.525
490.502441406,1988.7
490.790527344,1918.075
491.078552246,2111.075
491.366546631,2126.925
491.654602051,1871.475
491.942565918,1950.05
492.230499268,1998.05
492.518493652,1959.675
492.806396484,2008.125
493.094268799,1890.0
493.382202148,1933.2
493.670074463,2059.85
493.957885742,1905.125
494.245727539,1914.725
494.533508301,2080.0
494.821289062,1970.525
495.109100342,1805.825
495.396850586,1749.55
495.684539795,1695.85
495.972290039,1924.2
496.25994873,2301.8
496.547607422,2308.75
496.835296631,2107.45
497.122894287,1768.75
497.410522461,1681.1
497.6980896,1678.275
497.985687256,1646.1
498.273223877,1751.575
498.560760498,1836.325
498.848266602,1856.7
499.135772705,1832.625
499.423217773,1880.9
499.710693359,1997.175
499.998138428,1917.675
500.285522461,1739.325
500.572937012,1656.075
500.860290527,1716.1
501.147644043,1820.2
501.434997559,2076.05
501.722290039,1930.85
502.00958252,1677.825
502.296875,1959.025
502.584106445,1951.5
502.871337891,1751.9
503.158599854,1840.15
503.445770264,1917.0
503.732910156,1892.8
504.020141602,1692.175
504.307220459,1675.3
504.594329834,1710.625
504.881469727,1643.3
505.168518066,1719.85
505.455535889,1792.35
505.742614746,1661.725
506.029632568,1585.525
506.316589355,1798.1
506.603637695,1882.425
506.890563965,1680.9
507.177459717,1489.625
507.464385986,1407.975
507.751312256,1644.475
508.038146973,1753.9
508.325012207,1575.125
508.611877441,1662.725
508.898681641,1672.65
509.185424805,1482.675
509.472259521,1449.875
509.759002686,1540.2
510.045715332,1564.0
510.332458496,1511.325
510.619140625,1575.7
510.905761719,1484.525
511.192504883,1477.525
511.479095459,1532.9
511.765686035,1463.675
512.052307129,1378.975
512.338928223,1312.525
512.625427246,1378.4
512.91204834,1443.5
513.198486328,1417.675
513.484985352,1382.525
513.77142334,1296.85
514.057922363,1357.825
514.344299316,1356.175
514.63079834,1303.05
514.917175293,1293.75
515.203552246,1192.15
515.489868164,1160.45
515.776245117,1305.05
516.0625,1348.0
516.348815918,1239.675
516.635070801,1288.2
516.921325684,1338.2
517.207580566,1272.125
517.493774414,1177.2
517.779968262,1179.0
518.066101074,1230.9
518.352294922,1174.75
518.638366699,1178.675
518.924499512,1264.775
519.210632324,1343.625
519.496643066,1302.6
519.782714844,1198.775
520.068786621,1150.65
520.354736328,1115.35
520.640686035,1076.2
520.926757812,1115.3
521.212646484,1210.925
521.498535156,1209.925
521.784484863,1151.5
522.0703125,1082.5
522.356262207,1115.1
522.642089844,1193.825
522.927856445,1182.15
523.213684082,1163.25
523.499511719,1156.1
523.78527832,1201.35
524.070983887,1255.05
524.356750488,1228.825
524.64239502,1190.85
524.928039551,1182.175
525.213806152,1195.625
525.499389648,1185.225
525.784973145,1212.875
526.070617676,1272.9
526.356140137,1226.325
526.641723633,1238.25
526.927307129,1297.825
527.212768555,1310.65
527.498291016,1283.175
527.783752441,1287.525
528.069213867,1265.85
528.354675293,1287.375
528.640014648,1454.825
528.925476074,1532.075
529.21081543,1452.4
529.496154785,1429.8
529.781555176,1395.775
530.066833496,1404.95
530.352050781,1428.0
530.637390137,1418.125
530.922607422,1415.8
531.207824707,1405.125
531.493041992,1389.2
531.778198242,1467.525
532.063354492,1441.15
532.348571777,1388.475
532.633666992,1408.6
532.918762207,1484.875
533.203857422,1588.525
533.488891602,1606.675
533.773925781,1558.075
534.059020996,1522.8
534.343933105,1555.95
534.628967285,1529.8
534.91394043,1550.25
535.198852539,1556.975
535.483703613,1544.425
535.768676758,1473.175
536.053527832,1481.4
536.338317871,1426.55
536.62322998,1354.6
536.90802002,1328.45
537.192810059,1360.6
537.477539062,1439.575
537.762329102,1493.475
538.047058105,1532.175
538.331726074,1569.275
538.616455078,1548.625
538.901123047,1520.675
539.18572998,1573.925
539.470397949,1569.95
539.755004883,1561.025
540.039550781,1531.0
540.32409668,1484.975
540.608703613,1518.475
540.893188477,1631.375
541.17767334,1641.05
541.462158203,1648.075
541.746643066,1581.325
542.031066895,1632.675
542.315429688,1676.175
542.59979248,1660.775
542.884216309,1652.475
543.168579102,1635.55
543.452941895,1652.5
543.737243652,1711.725
544.021484375,1764.475
544.305725098,1749.725
544.590026855,1718.2
544.874267578,1737.1
545.158447266,1811.1
545.442626953,1717.95
545.726806641,1614.675
546.010925293,1643.5
546.29510498,1683.775
546.579162598,1666.975
546.863220215,1710.35
547.147277832,1787.325
547.431335449,1878.875
547.715332031,1939.0
547.999328613,2045.6
548.283325195,2067.175
548.567260742,1894.7
548.851135254,1876.45
549.135070801,1839.8
549.419006348,1737.925
549.702819824,1855.175
549.986755371,1925.9
550.270507812,1887.075
550.554321289,1940.375
550.83807373,1953.575
551.121826172,1901.775
551.405517578,1925.175
551.689331055,2052.25
551.973022461,2276.175
552.256652832,2345.45
552.540344238,2254.675
552.823974609,2223.65
553.107543945,2212.25
553.391174316,2260.3
553.674743652,2330.35
553.958251953,2343.1
554.241821289,2331.125
554.525268555,2281.6
554.808776855,2278.65
555.092285156,2474.7
555.375671387,2568.575
555.659057617,2553.875
555.942504883,2578.175
556.225891113,2633.3
556.509216309,2595.35
556.792541504,2494.25
557.075866699,2569.375
557.359130859,2613.25
557.64239502,2597.8
557.92565918,2697.625
558.208862305,2667.95
558.49206543,2600.575
558.77532959,2621.725
559.058410645,2679.125
559.341552734,2659.3
559.624694824,2708.275
559.907775879,2795.1
560.190856934,2921.3
560.473937988,2922.475
560.756896973,2963.85
561.039978027,2990.1
561.322937012,2942.025
561.605895996,2934.725
561.88885498,2912.025
562.171813965,2901.075
562.454650879,2893.325
562.737548828,2917.975
563.020446777,2997.325
563.303283691,3022.825
563.58605957,3037.35
563.868896484,3067.45
564.151672363,3113.4
564.434387207,3147.95
564.717163086,3125.575
564.99987793,3178.15
565.282531738,3228.325
565.565185547,3169.575
565.847839355,3187.55
566.130432129,3314.675
566.413085938,3290.95
566.695678711,3294.8
566.978149414,3429.05
567.260681152,3563.4
567.543273926,3645.0
567.825744629,3548.825
568.108154297,3572.375
568.390686035,3697.7
568.673095703,3843.35
568.955505371,3889.15
569.237854004,3928.25
569.520202637,4210.95
569.802490234,4452.175
570.084838867,4421.925
570.367126465,4229.975
570.649414062,4265.7
570.93170166,4638.525
571.213928223,4706.85
571.496154785,4452.625
571.778381348,4711.05
572.06048584,4955.6
572.342590332,4461.3
572.624755859,4107.125
572.906860352,4169.85
573.188903809,4893.275
573.470947266,5157.0
573.752990723,4904.7
574.03503418,5011.975
574.317016602,5427.075
574.598937988,5197.9
574.88092041,5082.325
575.162841797,5258.325
575.444763184,4860.4
575.726623535,4579.55
576.008483887,4657.875
576.290344238,5085.825
576.572143555,5272.975
576.853881836,5339.975
577.135681152,5233.9
577.417419434,5298.325
577.699157715,6231.375
577.980895996,6403.225
578.262573242,5695.05
578.544128418,5182.575
578.825866699,5117.325
579.107421875,4777.0
579.388977051,4979.775
579.670593262,5397.775
579.952148438,5234.8
580.233642578,5328.7
580.515197754,5451.175
580.796691895,5130.35
581.078125,5319.25
581.359619141,6919.95
581.640991211,7028.85
581.922363281,6055.825
582.203796387,6108.0
582.485107422,5708.525
582.766418457,5297.075
583.047790527,5147.7
583.329040527,5035.275
583.610290527,4898.0
583.891540527,4984.55
584.172790527,5334.925
584.453918457,5338.075
584.735107422,5397.95
585.016235352,5901.8
585.297363281,5848.6
585.578552246,5648.9
585.859619141,5562.5
586.140625,5340.2
586.421630859,5176.525
586.702697754,5211.1
586.983642578,5455.15
587.264648438,5640.75
587.545654297,5582.675
587.826477051,5510.65
588.107421875,5316.475
588.388305664,5355.5
588.669189453,5454.775
588.950012207,5302.7
589.230834961,5189.05
589.511657715,5277.5
589.792358398,5380.325
590.073120117,5386.55
590.353881836,5352.35
590.63458252,5381.325
590.915283203,5342.7
591.195922852,5319.125
591.4765625,5355.125
591.757202148,5384.95
592.037780762,5387.8
592.31829834,5383.3
592.598937988,5618.575
592.879394531,5781.2
593.159912109,5705.4
593.440429688,5635.975
593.720825195,5593.725
594.001281738,5587.25
594.281677246,5481.975
594.562072754,5516.025
594.842407227,5626.325
595.122802734,5658.275
595.403137207,5631.25
595.683410645,5604.325
595.963623047,5578.875
596.243896484,5537.6
596.524169922,5559.3
596.804382324,5563.8
597.084533691,5588.1
597.364746094,5631.975
597.644836426,5646.5
597.924987793,5619.4
598.205078125,5593.725
598.485107422,5630.625
598.765197754,5737.025
599.045227051,5791.0
599.325195312,5692.8
599.605224609,5648.9
599.885192871,5701.775
600.165100098,5740.4
600.445007324,5680.4
600.724914551,5669.1
601.004760742,5694.875
601.284667969,5739.65
601.56451416,5681.125
601.844238281,5692.6
602.124084473,5684.9
602.403808594,5675.15
602.683532715,5737.325
602.963256836,5714.525
603.242919922,5751.35
603.522583008,5810.225
603.802246094,5765.45
604.081848145,5734.65
604.36138916,5724.15
604.641052246,5733.275
604.920532227,5704.825
605.200073242,5750.325
605.479614258,5770.075
605.759094238,5821.125
606.038574219,5806.525
606.317932129,5728.55
606.597412109,5722.1
606.87677002,5736.275
607.15612793,5807.625
607.435546875,5791.8
607.714782715,5797.325
607.99407959,5748.525
608.273376465,5729.6
608.552612305,5793.975
608.831848145,5787.025
609.111083984,5770.575
609.390258789,5751.95
609.669433594,5746.15
609.948608398,5811.375
610.227722168,5791.45
610.506713867,5726.375
610.785888672,5736.025
611.064880371,5730.725
611.34387207,5741.425
611.622924805,5763.0
611.901916504,5749.7
612.180847168,5695.3
612.459777832,5720.375
612.738647461,5728.175
613.01751709,5666.8
613.296447754,5627.825
613.575317383,5576.2
613.854064941,5534.55
614.132873535,5435.45
614.411621094,5388.55
614.690368652,5352.7
614.969177246,5283.3
615.247802734,5203.725
615.526489258,5201.225
615.805175781,5081.675
616.08380127,4960.15
616.362365723,4875.65
616.640991211,4813.775
616.919555664,4772.35
617.198059082,4868.675
617.4765625,5173.15
617.755126953,5338.825
618.033569336,5352.275
618.311950684,5343.375
618.590454102,5323.125
618.868774414,5302.925
619.147155762,5317.15
619.425598145,5313.9
619.703857422,5335.975
619.982177734,5321.5
620.260498047,5329.825
620.538757324,5305.95
620.816955566,5251.7
621.095214844,5228.4
621.373413086,5237.875
621.651550293,5303.675
621.929748535,5333.125
622.207824707,5329.125
622.485900879,5340.775
622.764038086,5336.5
623.042053223,5359.4
623.320007324,5392.375
623.598083496,5384.575
623.876037598,5365.975
624.153991699,5391.05
624.432006836,5399.975
624.709838867,5414.9
624.987731934,5395.15
625.265563965,5401.725
625.543395996,5401.625
625.821228027,5470.0
626.098999023,5452.6
626.376831055,5503.675
626.654541016,5524.775
626.932250977,5574.1
627.209960938,5621.225
627.487670898,5631.025
627.765319824,5639.325
628.04296875,5632.425
628.320495605,5628.55
628.598083496,5644.95
628.875671387,5702.675
629.153259277,5716.275
629.430725098,5752.7
629.708251953,5788.125
629.985656738,5786.125
630.263122559,5841.875
630.540588379,5860.15
630.817932129,5874.825
631.095275879,5900.85
631.372680664,5949.25
631.649963379,5998.175
631.927246094,6046.55
632.204589844,6069.825
632.481811523,6136.95
632.759033203,6213.375
633.036254883,6207.15
633.313415527,6317.6
633.590576172,6368.3
633.867736816,6479.275
634.144836426,6524.3
634.421875,6583.275
634.698913574,6654.775
634.976013184,6707.85
635.252990723,6752.275
635.529968262,6787.05
635.807006836,6901.75
636.08392334,6856.9
636.360839844,6774.275
636.637756348,6668.725
636.914611816,6656.95
637.191467285,6629.575
637.468261719,6704.0
637.745056152,6651.1
638.021789551,6694.8
638.298583984,6687.125
638.575317383,6744.625
638.851989746,6763.725
639.12878418,6778.875
639.405395508,6752.15
639.682006836,6805.025
639.958618164,6799.225
640.235229492,6753.55
640.511779785,6820.475
640.788330078,6794.6
641.064880371,6788.7
641.341308594,6761.1
641.617797852,6774.275
641.894226074,6775.5
642.170654297,6799.175
642.44708252,6784.925
642.723388672,6796.775
642.999755859,6780.8
643.276123047,6801.5
643.552429199,6764.475
643.828674316,6789.25
644.104919434,6756.025
644.381164551,6738.325
644.657348633,6769.725
644.933532715,6732.775
645.209716797,6753.7
645.485839844,6753.575
645.761901855,6743.45
646.038024902,6708.65
646.314086914,6771.2
646.590087891,6739.4
646.866149902,6771.175
647.142150879,6726.7
647.41809082,6690.925
647.694030762,6714.425
647.969970703,6716.4
648.245788574,6727.525
648.521728516,6707.4
648.797546387,6697.375
649.073303223,6748.225
649.349182129,6710.825
649.624938965,6724.9
649.900634766,6737.25
650.176391602,6697.675
650.452087402,6683.1
650.727783203,6691.075
651.003479004,6700.85
651.279052734,6700.125
651.554626465,6685.3
651.83026123,6683.575
652.105773926,6707.35
652.381286621,6667.525
652.656860352,6686.55
652.932312012,6693.675
653.207763672,6677.5
653.483215332,6732.075
653.758605957,6700.3
654.033935547,6708.75
654.309326172,6707.15
654.584716797,6713.575
654.859985352,6707.625
655.135253906,6754.35
655.410583496,6742.975
655.685791016,7790.675
655.9609375,12116.725
656.236206055,11843.7
656.511291504,7854.45
656.786437988,6900.175
657.061645508,6814.225
657.336669922,6793.475
657.611694336,6836.375
657.886779785,6860.725
658.161804199,6885.625
658.436828613,6848.975
658.711791992,6862.025
658.986755371,6900.925
659.261657715,6908.675
659.536621094,6881.125
659.811401367,6883.525
660.086303711,6939.05
660.36114502,6917.125
660.635864258,6903.275
660.910644531,6944.175
661.185424805,6944.2
661.460205078,6973.65
661.734863281,6967.25
662.009521484,6976.175
662.284179688,7002.525
662.558776855,7024.975
662.833435059,7061.0
663.108032227,7050.125
663.382568359,7058.525
663.657043457,7102.45
663.93157959,7126.7
664.206054688,7099.55
664.48046875,7140.3
664.755004883,7149.55
665.02935791,7175.6
665.303710938,7216.75
665.578125,7246.15
665.852416992,7229.15
666.126708984,7229.225
666.401062012,7224.1
666.675292969,7287.95
666.949462891,7307.425
667.223754883,7272.125
667.497924805,7329.625
667.772094727,7347.625
668.046264648,7322.375
668.3203125,7389.425
668.594421387,7415.675
668.868469238,7426.225
669.14251709,7440.65
669.416503906,7452.7
669.690551758,7470.35
669.964477539,7478.275
670.23840332,7493.625
670.512329102,7493.1
670.786254883,7445.8
671.060058594,7535.65
671.333984375,7555.25
671.607788086,7570.4
671.881530762,7558.05
672.155334473,7605.925
672.429077148,7633.2
672.702758789,7636.55
672.97644043,7624.35
673.25012207,7639.875
673.523742676,7624.875
673.797302246,7645.85
674.070922852,7701.7
674.344482422,7698.65
674.618041992,7717.55
674.891601562,7715.0
675.165100098,7740.325
675.438476562,7720.025
675.711975098,7734.425
675.985412598,7727.325
676.258789062,7725.675
676.532165527,7760.15
676.805480957,7779.575
677.078796387,7794.725
677.352111816,7834.7
677.625366211,7823.1
677.898620605,7805.75
678.171875,7891.225
678.445007324,7856.65
678.718200684,7893.1
678.991394043,7876.275
679.264404297,7892.625
679.537536621,7929.475
679.81060791,7919.15
680.083679199,7922.575
680.356689453,7935.175
680.629699707,7932.8
680.902648926,7923.15
681.175598145,7998.575
681.448547363,8017.325
681.721435547,7965.175
681.99420166,7976.9
682.267150879,7994.2
682.539916992,8063.975
682.812744141,8032.15
683.085510254,7994.0
683.358215332,8038.2
683.63092041,8030.725
683.903625488,8024.775
684.176330566,8031.225
684.448913574,7991.1
684.721557617,8018.3
684.99420166,8106.05
685.266662598,8074.925
685.539245605,8075.025
685.811767578,8104.675
686.084289551,8137.2
686.356689453,8177.8
686.629150391,8209.6
686.901550293,8234.275
687.17401123,8220.1
687.446350098,8261.525
687.718688965,8266.525
687.990966797,8303.225
688.263305664,8308.025
688.535522461,8315.75
688.807739258,8289.8
689.079956055,8341.5
689.352172852,8365.125
689.624328613,8369.775
689.896484375,8407.375
690.168518066,8430.775
690.440612793,8435.275
690.71270752,8440.925
690.984741211,8456.525
691.256713867,8479.975
691.528747559,8450.725
691.800720215,8489.375
692.072631836,8520.975
692.344543457,8577.025
692.616394043,8561.625
692.888244629,8573.375
693.160095215,8602.8
693.431945801,8658.775
693.703674316,8577.25
693.975463867,8595.075
694.247131348,8645.1
694.518859863,8612.925
694.790588379,8694.325
695.062255859,8704.975
695.33380127,8664.775
695.60546875,8678.225
695.87701416,8705.725
696.148498535,8729.25
696.42010498,8749.55
696.691589355,8772.9
696.96307373,8807.3
697.234558105,8856.6
697.50592041,8846.6
697.777282715,8870.6
698.048706055,8871.9
698.320068359,8900.45
698.591308594,8891.95
698.862670898,8868.85
699.133972168,8919.875
699.405151367,8917.45
699.676391602,8982.175
699.947570801,8946.725
700.21875,8998.825
700.489868164,9020.525
700.761047363,9001.85
701.032104492,9011.975
701.303100586,8978.45
701.57421875,9043.1
701.845214844,9013.45
702.116149902,9063.425
702.387207031,9063.575
702.65814209,9101.125
702.928955078,9091.35
703.199951172,9096.25
703.47076416,9035.0
703.741577148,9066.15
704.012451172,9114.55
704.28314209,9122.6
704.553955078,9135.8
704.824707031,9151.65
705.095397949,9197.325
705.366027832,9191.0
705.63671875,9215.375
705.907348633,9175.0
706.17791748,9197.825
706.448486328,9220.7
706.719055176,9256.475
706.989562988,9266.3
707.260131836,9282.075
707.530517578,9300.45
707.800964355,9293.825
708.071411133,9271.725
708.341796875,9263.225
708.612182617,9267.025
708.882446289,9236.875
709.152893066,9270.525
709.423156738,9325.675
709.693359375,9286.15
709.963623047,9308.9
710.233825684,9321.4
710.503967285,9321.45
710.774169922,9324.5
711.044311523,9321.875
711.31439209,9312.6
711.584533691,9358.325
711.854553223,9372.025
712.124572754,9367.525
712.39465332,9333.025
712.664611816,9361.875
712.934509277,9431.075
713.204467773,9396.525
713.474365234,9399.825
713.74420166,9410.675
714.014099121,9439.3
714.283874512,9426.575
714.553710938,9467.5
714.823486328,9448.75
715.093200684,9414.4
715.362915039,9436.85
715.632629395,9455.375
715.902282715,9413.925
716.171875,9398.825
716.441589355,9411.0
716.711181641,9398.55
716.980712891,9408.925
717.250244141,9401.05
717.519775391,9389.875
717.78918457,9423.4
718.058654785,9485.125
718.328125,9548.4
718.597473145,9473.15
718.866882324,9472.85
719.136230469,9472.95
719.405578613,9520.0
719.674865723,9538.2
719.944152832,9515.925
720.213439941,9500.55
720.48260498,9524.025
720.75177002,9553.2
721.020996094,9530.725
721.290100098,9544.15
721.559204102,9512.025
721.828308105,9565.675
722.097351074,9572.625
722.366455078,9534.725
722.635437012,9519.525
722.904418945,9480.1
723.173400879,9511.5
723.442321777,9549.275
723.711181641,9510.825
723.980102539,9540.475
724.248962402,9529.225
724.51776123,9497.85
724.786560059,9563.475
725.055358887,9567.3
725.324035645,9537.75
725.592834473,9545.6
725.86151123,9502.975
726.130187988,9517.7
726.398803711,9484.125
726.667419434,9501.425
726.935974121,9506.275
727.204528809,9476.425
727.473083496,9488.725
727.741638184,9441.6
728.010070801,9402.425
728.278564453,9435.9
728.546936035,9445.9
728.815368652,9369.575
729.08380127,9286.275
729.352111816,9260.75
729.620361328,9195.575
729.88873291,9240.375
730.156982422,9278.1
730.425231934,9292.725
730.693481445,9282.3
730.961669922,9357.175
731.229797363,9368.05
731.49798584,9398.025
731.766113281,9473.775
732.034118652,9539.6
732.302246094,9620.625
732.570251465,9643.2
732.838256836,9658.275
733.106262207,9778.5
733.374145508,9755.4
733.642089844,9829.225
733.909973145,9881.35
734.177856445,9978.725
734.445678711,10043.35
734.713562012,10196.0
734.981323242,10161.475
735.249084473,10234.65
735.516845703,10394.55
735.784545898,10445.75
736.052185059,10502.1
736.319885254,10602.3
736.587524414,10649.825
736.855102539,10730.175
737.122619629,10878.325
737.390197754,10870.625
737.657714844,11007.25
737.925170898,11058.35
738.192749023,11217.15
738.460144043,11261.125
738.727539062,11316.975
738.994995117,11453.275
739.262329102,11509.0
739.529663086,11610.1
739.79699707,11670.65
740.06427002,11698.325
740.331481934,11815.025
740.598754883,11852.1
740.865905762,11834.95
741.133056641,12054.95
741.40032959,12084.8
741.667358398,12185.225
741.934448242,12197.7
742.201599121,12235.6
742.468566895,12326.575
742.735534668,12391.275
743.002563477,12410.525
743.26953125,12416.9
743.536437988,12490.425
743.803405762,12601.575
744.0703125,12576.725
744.337097168,12678.025
744.604003906,12579.825
744.870727539,12698.325
745.137512207,12726.325
745.40423584,12732.825
745.670959473,12718.575
745.93762207,12755.825
746.204284668,12758.575
746.470947266,12789.55
746.737548828,12781.875
747.004089355,12808.825
747.270751953,12827.5
747.53717041,12844.975
747.803710938,12785.2
748.070251465,12758.6
748.336608887,12754.9
748.603027344,12762.775
748.869445801,12767.025
749.135803223,12759.325
749.402099609,12789.3
749.668457031,12789.1
749.934753418,12747.575
750.20098877,12680.0
750.467224121,12775.2
750.733459473,12714.9
750.999572754,12678.75
751.26574707,12609.35
751.531860352,12641.85
751.797912598,12593.6
752.064025879,12529.15
752.330078125,12570.925
752.596069336,12516.7
752.862060547,12486.25
753.127990723,12472.6
753.393920898,12459.15
753.659912109,12401.425
753.925720215,12448.85
754.19152832,12413.825
754.457397461,12364.175
754.723144531,12316.975
754.988952637,12247.075
755.254699707,12315.925
755.520385742,12321.375
755.786071777,12321.45
756.051696777,12305.25
756.317382812,12253.65
756.582946777,12189.425
756.848510742,12203.05
757.114074707,12161.75
757.379577637,12152.5
757.645080566,12231.75
757.910583496,12179.25
758.175964355,12098.875
758.441345215,12063.5
758.706848145,11922.6
758.972106934,11928.575
759.237426758,11953.55
759.502807617,11972.325
759.768005371,11939.0
760.03326416,11915.275
760.298522949,11847.35
760.563659668,11891.375
760.828857422,11872.55
761.093994141,11866.95
761.359130859,11779.8
761.624206543,11768.525
761.889282227,11717.825
762.15423584,11724.325
762.419250488,11725.825
762.684265137,11636.15
762.949157715,11597.05
763.214050293,11616.025
763.479003906,11592.9
763.743835449,11577.3
764.008666992,11493.775
764.2734375,11533.25
764.538208008,11563.45
764.802978516,11596.5
765.067687988,11534.3
765.332397461,11537.125
765.597045898,11480.925
765.861694336,11448.475
766.126342773,11393.925
766.390930176,11396.225
766.655395508,11358.175
766.920043945,11326.85
767.184509277,11300.875
767.448974609,11313.925
767.713439941,11297.525
767.977783203,11249.375
768.2421875,11279.7
768.506591797,11206.525
768.770874023,11297.875
769.03515625,11245.25
769.299499512,11259.65
769.563720703,11237.95
769.827941895,11165.6
770.092163086,11163.8
770.356323242,11153.6
770.620483398,11181.075
770.88458252,11161.0
771.148681641,11158.475
771.412719727,11135.225
771.676757812,11127.425
771.940734863,11086.05
772.204711914,11078.25
772.468688965,11057.65
772.73260498,11020.425
772.996459961,11033.2
773.260314941,9866.05
773.524169922,1260.975
773.787963867,155.4
774.051696777,120.975
774.315551758,119.8
774.579223633,120.9
774.842895508,118.0
775.106567383,121.875
775.370239258,118.425
775.633789062,122.35
775.897399902,125.05
776.160949707,115.1
776.424499512,119.425
776.687988281,121.85
776.951477051,125.975
777.214904785,119.9
777.47833252,120.025
