191.299911499,97.7
191.603515625,102.65
191.907119751,96.575
192.210693359,103.75
192.514251709,97.75
192.817810059,101.625
193.121368408,104.525
193.42489624,104.85
193.728408813,97.2
194.031936646,97.675
194.33543396,91.85
194.638916016,108.45
194.94241333,95.475
195.245880127,96.225
195.549331665,94.675
195.852767944,101.475
196.156204224,197.85
196.459625244,194.7
196.763015747,194.175
197.066436768,203.375
197.369812012,197.325
197.673187256,199.125
197.9765625,192.8
198.279922485,196.7
198.583251953,188.25
198.886581421,198.8
199.18989563,203.1
199.493209839,194.2
199.79649353,188.325
200.09979248,199.45
200.403076172,195.175
200.706314087,197.2
201.009567261,195.55
201.312820435,197.35
201.616027832,188.2
201.919235229,181.425
202.222457886,191.025
202.525634766,191.7
202.828826904,182.825
203.132003784,185.075
203.435150146,187.95
203.738296509,187.525
204.041412354,184.075
204.344558716,189.55
204.647659302,189.525
204.950759888,193.725
205.253845215,187.875
205.556930542,185.7
205.859985352,188.35
206.163024902,188.25
206.466079712,188.225
206.769104004,199.05
207.072113037,191.825
207.375137329,190.575
207.678131104,189.2
207.981109619,193.375
208.284088135,189.15
208.587036133,195.075
208.889984131,195.625
209.19291687,199.3
209.495849609,198.05
209.798751831,197.95
210.101654053,196.35
210.404556274,199.8
210.707427979,198.05
211.010269165,201.8
211.31312561,204.85
211.615982056,199.15
211.918807983,207.425
212.221618652,204.125
212.524429321,198.775
212.827224731,207.125
213.130004883,206.725
213.432769775,208.05
213.735534668,208.925
214.038269043,209.0
214.341003418,209.25
214.643737793,214.3
214.946456909,216.475
215.249145508,216.625
215.551834106,222.9
215.854507446,220.4
216.157165527,221.025
216.45980835,221.525
216.762451172,223.65
217.065078735,225.8
217.36769104,223.15
217.670303345,232.0
217.972885132,231.45
218.275466919,233.3
218.578048706,228.875
218.880599976,238.325
219.183120728,237.075
219.485656738,245.95
219.788192749,253.0
220.090682983,265.525
220.393188477,272.4
220.695663452,303.325
220.998138428,320.35
221.300582886,360.325
221.603042603,395.075
221.905487061,442.225
222.207901001,498.5
222.510299683,559.875
222.812728882,638.9
223.115097046,723.775
223.41746521,821.05
223.719848633,919.425
224.022171021,1013.575
224.324508667,1112.5
224.626846313,1255.7
224.929168701,1368.9
225.231460571,1500.325
225.533737183,1614.825
225.836013794,1747.725
226.138290405,1870.525
226.440536499,2001.525
226.742767334,2111.3
227.044998169,2235.4
227.347213745,2378.125
227.649429321,2475.475
227.951629639,2564.125
228.253799438,2660.75
228.555953979,2784.025
228.858123779,2865.675
229.160263062,2960.75
229.462371826,3009.025
229.764511108,3090.825
230.066619873,3171.975
230.36869812,3262.125
230.670776367,3316.15
230.972854614,3407.9
231.274902344,3480.625
231.576950073,3593.375
231.878967285,3639.775
232.180999756,3745.425
232.48298645,3827.725
232.784988403,3900.95
233.086975098,3993.85
233.388946533,4092.525
233.69090271,4166.375
233.992858887,4239.95
234.294769287,4268.675
234.596694946,4363.175
234.898605347,4458.325
235.200500488,4487.75
235.502380371,4564.65
235.804244995,4625.15
236.106109619,4641.2
236.407958984,4696.95
236.709777832,4758.375
237.011581421,4779.25
237.313400269,4805.225
237.615203857,4823.675
237.916976929,4908.15
238.21875,4919.375
238.520507812,4943.575
238.822250366,4980.8
239.12399292,5010.35
239.425704956,5057.075
239.727401733,5054.625
240.02911377,5114.2
240.330780029,5106.975
240.632446289,5143.05
240.93409729,5179.4
241.23576355,5222.1
241.537384033,5266.475
241.839004517,5307.475
242.140594482,5344.125
242.442199707,5375.325
242.743774414,5430.35
243.045333862,5483.85
243.346923828,5501.825
243.648452759,5564.15
243.949966431,5575.275
244.251495361,5629.55
244.552993774,5649.3
244.854492188,5651.75
245.155975342,5667.8
245.457443237,5728.3
245.758880615,5724.925
246.060333252,5730.2
246.36177063,5719.875
246.66317749,5720.25
246.964569092,5719.15
247.265945435,5740.375
247.567337036,5766.2
247.86869812,5808.075
248.170059204,5848.275
248.471389771,5842.225
248.772705078,5904.775
249.074035645,5945.2
249.375335693,5967.425
249.676620483,6051.275
249.977890015,6086.55
250.279159546,6187.7
250.58039856,6232.725
250.881637573,6319.225
251.182876587,6363.5
251.484069824,6484.325
251.785263062,6562.85
252.086456299,6680.75
252.387619019,6733.675
252.688781738,6777.85
252.989929199,6899.225
253.291061401,7010.375
253.592178345,7116.05
253.893280029,7178.0
254.194366455,7267.05
254.49546814,7317.125
254.796524048,7329.2
255.097579956,7404.375
255.398620605,7441.5
255.699645996,7504.825
256.000640869,7552.3
256.30166626,7565.2
256.602661133,7648.95
256.903656006,7565.975
257.204589844,7602.85
257.505523682,7578.025
257.80645752,7628.6
258.107391357,7596.9
258.408294678,7562.625
258.709228516,7496.65
259.010070801,7473.85
259.310943604,7458.35
259.611846924,7389.525
259.912658691,7340.7
260.213500977,7270.65
260.514343262,7200.175
260.815124512,7104.125
261.115936279,7083.825
261.416717529,7046.05
261.717468262,6988.875
262.018218994,6955.075
262.318969727,6919.225
262.619689941,6942.625
262.920410156,6984.55
263.221130371,7000.175
263.521789551,7015.975
263.822479248,7061.4
264.123138428,7096.425
264.42376709,7089.875
264.72442627,7073.6
265.025054932,7068.8
265.325622559,7033.75
265.626251221,7013.25
265.926818848,6962.625
266.227386475,6886.725
266.527954102,6862.5
266.828460693,6856.35
267.12902832,6717.0
267.429534912,6667.475
267.730010986,6606.775
268.030517578,6505.025
268.330993652,6470.15
268.631439209,6371.45
268.931915283,6364.575
269.232299805,6304.55
269.532745361,6275.925
269.8331604,6162.9
270.133544922,6156.75
270.433929443,6110.45
270.734313965,6095.25
271.034637451,6077.4
271.334991455,6075.35
271.635314941,6067.625
271.935638428,6080.225
272.235931396,6125.35
272.536254883,6133.425
272.836486816,6176.175
273.136749268,6228.9
273.437011719,6326.025
273.737213135,6396.025
274.037445068,6450.625
274.337677002,6541.525
274.6378479,6642.725
274.938049316,6745.825
275.238220215,6790.525
275.538360596,6921.25
275.838500977,7030.55
276.138641357,7110.575
276.438751221,7173.425
276.738830566,7258.1
277.03894043,7306.275
277.338989258,7409.15
277.639038086,7485.45
277.939056396,7537.2
278.239105225,7562.175
278.539093018,7634.225
278.839141846,7692.15
279.139129639,7714.3
279.439086914,7804.0
279.739044189,7838.05
280.039001465,7935.4
280.338928223,7938.1
280.63885498,7981.225
280.938781738,8023.35
281.238647461,8047.4
281.538513184,8046.65
281.838409424,8056.95
282.138244629,8104.025
282.438079834,8095.775
282.737945557,8111.05
283.037719727,8141.125
283.337524414,8161.75
283.637298584,8146.1
283.937072754,8139.825
284.236816406,8152.05
284.536560059,8116.875
284.836303711,8106.575
285.136016846,8189.925
285.43572998,8162.75
285.735412598,8139.925
286.035064697,8138.975
286.334747314,8169.1
286.634368896,8176.6
286.933990479,8074.05
287.233642578,8053.175
287.533203125,7981.85
287.832824707,7908.1
288.132385254,7808.875
288.431945801,7705.0
288.731506348,7539.975
289.031036377,7375.125
289.330566406,7269.35
289.630065918,7248.3
289.92956543,7189.075
290.229034424,7299.95
290.528503418,7443.5
290.827941895,7599.95
291.127380371,7753.475
291.42678833,7824.85
291.726226807,7993.775
292.025604248,7996.275
292.324981689,8027.2
292.624359131,8049.1
292.923736572,8021.6
293.223052979,8047.675
293.522369385,8039.925
293.821685791,8010.625
294.12097168,7965.05
294.420257568,7943.15
294.719543457,7910.85
295.018768311,7901.45
295.318023682,7827.275
295.617248535,7790.4
295.916442871,7718.65
296.215667725,7629.975
296.514862061,7504.5
296.813995361,7297.8
297.11315918,7082.65
297.412322998,6954.175
297.711425781,6927.175
298.010559082,7073.45
298.309631348,7280.675
298.608734131,7505.5
298.907806396,7671.3
299.206848145,7791.775
299.505889893,7897.575
299.804901123,7981.925
300.103912354,8025.775
300.402954102,8097.075
300.701904297,8152.225
301.00088501,8212.225
301.299835205,8324.675
301.5987854,8306.1
301.897735596,8394.925
302.196624756,8435.05
302.495513916,8515.05
302.794403076,8540.7
303.093292236,8625.6
303.392120361,8648.15
303.690979004,8699.625
303.989837646,8784.175
304.288604736,8827.125
304.587402344,8816.45
304.886199951,8855.95
305.184967041,8875.825
305.483734131,8936.55
305.782501221,8957.95
306.081176758,9000.825
306.37991333,9027.975
306.678619385,8988.85
306.977294922,9004.6
307.275970459,9024.45
307.574645996,9092.0
307.873260498,9019.95
308.171875,9070.475
308.470489502,9051.1
308.769104004,8950.475
309.067687988,8955.95
309.366241455,8966.325
309.664794922,8947.7
309.963348389,8913.5
310.261871338,8925.275
310.560394287,8935.025
310.858856201,8957.225
311.157348633,8964.025
311.455810547,8985.075
311.754272461,9011.25
312.052703857,9094.55
312.351135254,9107.95
312.649536133,9081.25
312.947937012,9057.175
313.246307373,9101.9
313.544647217,9070.625
313.843017578,9044.425
314.141387939,9011.35
314.439697266,9052.8
314.738006592,8959.625
315.036315918,8906.35
315.334564209,8793.725
315.6328125,8741.225
315.931091309,8706.225
316.229309082,8586.675
316.527526855,8455.5
316.825744629,8420.45
317.123901367,8313.225
317.422088623,8248.275
317.720245361,8253.35
318.0184021,8284.5
318.316497803,8326.125
318.614654541,8349.425
318.912750244,8412.125
319.21081543,8427.0
319.50894165,8430.575
319.806945801,8479.4
320.104980469,8452.475
320.403045654,8425.15
320.701049805,8413.75
320.999023438,8384.775
321.297027588,8346.6
321.595001221,8315.4
321.892913818,8288.175
322.190887451,8224.25
322.488830566,8174.025
322.786712646,8122.0
323.084625244,8005.475
323.382507324,8033.375
323.680358887,7929.15
323.978210449,7846.775
324.276062012,7812.9
324.573852539,7765.575
324.871643066,7701.95
325.169464111,7618.475
325.467224121,7581.325
325.764984131,7497.125
326.062744141,7427.3
326.360473633,7335.225
326.658203125,7294.225
326.955871582,7214.675
327.253570557,7161.15
327.551239014,7087.5
327.848907471,7048.95
328.146514893,6950.95
328.444152832,6906.55
328.741790771,6834.35
329.039367676,6807.875
329.336914062,6725.175
329.634521484,6639.625
329.932067871,6611.8
330.229553223,6514.7
330.527160645,6477.9
330.824615479,6432.775
331.12210083,6383.675
331.419586182,6238.975
331.717041016,6191.025
332.014465332,6103.6
332.311920166,6083.275
332.609313965,6048.175
332.906707764,6004.15
333.204101562,6005.65
333.501495361,6013.175
333.798828125,6060.825
334.096160889,6109.675
334.39352417,6158.875
334.690795898,6195.05
334.988098145,6247.5
335.285400391,6297.05
335.582641602,6297.275
335.879882812,6325.475
336.177124023,6371.875
336.474334717,6420.725
336.77154541,6400.825
337.068725586,6444.125
337.365905762,6440.975
337.66305542,6451.375
337.960205078,6476.675
338.257324219,6485.45
338.554443359,6496.725
338.8515625,6524.2
339.148590088,6509.3
339.445648193,6528.5
339.742736816,6475.325
340.039764404,6478.95
340.336761475,6451.125
340.63381958,6374.925
340.930755615,6388.05
341.227722168,6288.875
341.524688721,6200.125
341.821624756,6151.975
342.118560791,6175.525
342.415496826,6279.075
342.712402344,6394.375
343.009246826,6540.8
343.306121826,6651.75
343.602966309,6698.55
343.899810791,6779.25
344.196624756,6879.9
344.493438721,6900.15
344.79019165,6952.375
345.086975098,6995.1
345.383758545,7017.775
345.680480957,7030.9
345.977203369,7030.925
346.273956299,7084.325
346.570617676,7058.15
346.86730957,7098.825
347.163970947,7067.45
347.460601807,7115.4
347.757232666,7119.4
348.053894043,7082.35
348.350463867,7033.175
348.647064209,7023.9
348.943634033,7000.55
349.24017334,7008.55
349.536712646,6956.025
349.833251953,6977.225
350.129760742,6926.675
350.426208496,6947.8
350.722747803,6896.1
351.019195557,6897.6
351.315612793,6843.975
351.612060547,6839.1
351.908508301,6771.125
352.204864502,6719.275
352.501281738,6674.875
352.797637939,6605.55
353.093963623,6503.7
353.390319824,6469.8
353.686645508,6370.075
353.982940674,6319.3
354.27923584,6257.625
354.575531006,6199.15
354.871765137,6210.175
355.167999268,6160.45
355.464233398,6188.65
355.760437012,6181.325
356.056640625,6186.175
356.352813721,6190.475
356.648956299,6184.875
356.945129395,6207.875
357.241271973,6223.025
357.537384033,6230.275
357.833496094,6158.925
358.129577637,6156.8
358.425628662,6141.175
358.721679688,6108.95
359.017730713,6068.325
359.313720703,6045.325
359.609710693,6007.375
359.905761719,5951.325
360.201721191,5912.775
360.497650146,5846.55
360.793609619,5840.575
361.089538574,5749.875
361.385437012,5686.825
361.681365967,5639.625
361.977233887,5576.7
362.273071289,5533.9
362.568908691,5432.625
362.864746094,5318.575
363.160552979,5167.9
363.456359863,5010.5
363.752166748,4860.7
364.047912598,4785.35
364.343658447,4744.8
364.639434814,4764.425
364.935119629,4814.85
365.230834961,4867.275
365.526550293,4921.575
365.822174072,4923.8
366.117858887,4934.225
366.413482666,4974.3
366.709075928,5011.25
367.004730225,4902.075
367.300292969,4896.85
367.595855713,4958.9
367.891448975,4866.075
368.186981201,4732.35
368.482513428,4705.075
368.778015137,4690.125
369.073547363,4640.25
369.36895752,4684.325
369.664428711,4565.8
369.95993042,4460.575
370.255310059,4415.875
370.550720215,4386.5
370.846160889,4357.05
371.14151001,4293.675
371.436859131,4285.8
371.73223877,4259.175
372.027557373,4234.75
372.322875977,4164.3
372.618164062,4159.15
372.913482666,4103.725
373.208709717,4081.4
373.503967285,4019.05
373.799194336,3992.35
374.094421387,3993.6
374.389648438,3954.55
374.684844971,3949.9
374.979980469,3978.425
375.275146484,3999.1
375.570281982,4018.9
375.865386963,4010.9
376.160522461,3979.975
376.455596924,3988.625
376.750640869,4059.3
377.045715332,4104.85
377.340759277,4123.125
377.635772705,4182.0
377.93081665,4217.65
378.225769043,4296.875
378.520751953,4345.425
378.815734863,4300.45
379.110656738,4479.125
379.405548096,4632.225
379.700500488,4483.0
379.995391846,4275.95
380.290252686,4320.825
380.585083008,4442.35
380.879974365,4461.65
381.17477417,4393.85
381.469543457,4328.925
381.764404297,4296.8
382.059143066,4357.45
382.353912354,4432.075
382.648651123,4509.075
382.943389893,4494.625
383.238067627,4322.95
383.532775879,4333.775
383.827484131,4249.4
384.12210083,4276.8
384.416778564,4194.8
384.711425781,4114.2
385.006011963,4150.575
385.300628662,4126.55
385.595184326,4196.45
385.88973999,4291.3
386.184295654,4404.2
386.478820801,4501.825
386.77331543,4577.75
387.067840576,4686.05
387.362335205,4797.4
387.656768799,4845.725
387.951202393,4879.475
388.245635986,4958.85
388.540039062,5033.85
388.834472656,5109.65
389.128875732,4987.325
389.423187256,4754.575
389.717559814,4711.725
390.011871338,4819.15
390.306182861,4863.575
390.600463867,4856.6
390.894775391,4955.975
391.189025879,4979.25
391.48324585,4967.225
391.777526855,5015.3
392.071685791,5224.5
392.365875244,5333.225
392.660064697,5394.4
392.95425415,5745.225
393.248382568,5722.45
393.542510986,5225.25
393.836608887,5049.475
394.130706787,5064.075
394.424804688,5006.125
394.71887207,5128.5
395.012878418,5112.875
395.306915283,5015.125
395.600921631,4922.525
395.894927979,4891.575
396.188903809,4944.675
396.482879639,4945.275
396.776794434,5162.8
397.070739746,5124.775
397.364654541,5120.475
397.658538818,5534.975
397.952423096,5567.325
398.246307373,5517.575
398.540100098,6060.45
398.833953857,5948.35
399.127746582,5443.3
399.421508789,5450.325
399.715301514,5392.925
400.009063721,5286.05
400.30279541,5130.4
400.596496582,5040.225
400.890258789,5204.175
401.183929443,5306.975
401.47756958,5175.95
401.771240234,4955.05
402.064880371,4982.125
402.35848999,5006.85
402.652130127,4907.5
402.945678711,4980.0
403.239257812,4939.775
403.532775879,4887.5
403.82635498,4931.1
404.119842529,4827.375
404.413360596,4835.45
404.706848145,4881.4
405.000274658,4817.025
405.293762207,4879.225
405.587188721,4962.375
405.880584717,4801.075
406.17401123,4606.175
406.467407227,4374.35
406.760742188,4399.625
407.054107666,4456.55
407.347442627,4348.525
407.640716553,4351.075
407.934051514,4395.475
408.227325439,4493.575
408.520568848,4681.75
408.813842773,4775.2
409.107086182,4565.65
409.400238037,4521.775
409.693450928,4451.925
409.986633301,4573.9
410.279754639,4472.65
410.572875977,4191.85
410.86605835,4122.1
411.159118652,4155.4
411.452209473,4150.15
411.745330811,4010.075
412.038360596,3928.425
412.331390381,3962.7
412.624420166,4014.45
412.917388916,3901.225
413.210388184,3724.05
413.503387451,3703.225
413.796295166,3586.975
414.089233398,3421.5
414.382141113,3327.525
414.675048828,3324.15
414.967926025,3355.925
415.260803223,3299.925
415.55368042,3325.525
415.846466064,3280.675
416.139282227,3377.225
416.432098389,3493.25
416.724853516,3497.025
417.017608643,3430.275
417.31036377,3432.35
417.603088379,3570.95
417.895782471,3530.0
418.188476562,3501.375
418.481140137,3576.125
418.773803711,3626.85
419.066436768,3587.625
419.359039307,3663.15
419.651641846,3679.85
419.944244385,3670.725
420.236816406,3640.8
420.529327393,3857.85
420.821899414,3932.45
421.114379883,3850.525
421.406860352,4125.325
421.699371338,4332.85
421.991821289,4291.975
422.284240723,4098.8
422.576721191,3932.05
422.869110107,3815.825
423.161468506,3786.3
423.453857422,3819.3
423.74621582,3680.45
424.038543701,3558.225
424.330871582,3517.175
424.623168945,3447.125
424.915435791,3596.975
425.207702637,3537.6
425.499969482,3508.85
425.792205811,3442.175
426.084411621,3178.5
426.376617432,3284.15
426.668762207,3338.45
426.9609375,3205.55
427.253082275,3319.875
427.545196533,3755.325
427.837310791,3469.225
428.129425049,3166.75
428.421447754,3386.75
428.713531494,3394.925
429.005554199,3387.0
429.297576904,3410.7
429.589599609,3818.15
429.881561279,4147.1
430.173522949,3913.475
430.465484619,3860.875
430.757415771,3949.075
431.049316406,3708.425
431.341186523,3480.75
431.633117676,3372.075
431.924957275,3067.075
432.21673584,2975.0
432.508636475,3107.05
432.800415039,3132.4
433.092163086,3035.475
433.383972168,3003.1
433.675689697,3713.125
433.967437744,4218.675
434.259155273,3250.875
434.550872803,2936.075
434.842498779,2990.875
435.134185791,3117.5
435.425842285,3152.65
435.717437744,3047.05
436.009063721,2852.175
436.30065918,2995.8
436.592224121,3350.425
436.883758545,3152.375
437.175323486,2883.425
437.466827393,2860.7
437.758331299,2868.175
438.049804688,2897.25
438.341247559,2972.4
438.63269043,3032.8
438.924163818,3031.475
439.215515137,2984.175
439.50692749,2881.175
439.798309326,2877.25
440.089660645,2893.725
440.380981445,2817.15
440.672332764,2801.175
440.963623047,3075.0
441.254882812,3532.65
441.546173096,3722.075
441.837402344,3465.425
442.128631592,3288.825
442.41986084,3261.475
442.711029053,3131.0
443.002197266,3211.025
443.293365479,3377.85
443.584503174,3516.825
443.875610352,3481.175
444.166717529,3214.1
444.457794189,3274.975
444.748840332,3273.25
445.039916992,3210.575
445.330932617,3308.875
445.621948242,3166.825
445.912963867,2948.725
446.203918457,3186.025
446.494812012,3425.45
446.785827637,3210.925
447.076721191,3025.975
447.367584229,3016.475
447.658447266,2980.45
447.949371338,3038.6
448.24017334,2912.775
448.530975342,2855.975
448.821838379,3019.85
449.112579346,3106.625
449.40335083,3026.0
449.694152832,3048.975
449.984863281,3066.925
450.27557373,2986.1
450.56628418,3052.8
450.856933594,3075.5
451.147583008,2923.525
451.438262939,2804.025
451.728881836,3000.2
452.019470215,3099.675
452.310089111,2897.3
452.600646973,2916.85
452.891174316,2970.025
453.181732178,2804.75
453.472229004,2669.1
453.762695312,2790.075
454.053222656,2797.925
454.343658447,2678.975
454.634063721,2616.0
454.924530029,2804.125
455.214935303,2938.15
455.505279541,3004.4
455.795715332,2865.675
456.086029053,2674.725
456.376312256,2640.8
456.666687012,2679.75
456.956939697,2773.625
457.247192383,2790.675
457.537445068,2841.425
457.827728271,3052.375
458.117919922,2968.25
458.408081055,2902.5
458.698303223,3075.075
458.988433838,3016.9
459.278564453,2835.4
459.568725586,3101.35
459.858825684,3236.0
460.148864746,2920.15
460.438995361,2879.175
460.729034424,2921.625
461.019042969,2927.675
461.309082031,3132.1
461.599060059,3018.275
461.889007568,2552.7
462.179016113,2356.4
462.468933105,2616.675
462.75881958,2722.7
463.048736572,2470.025
463.338592529,2737.55
463.628448486,3075.825
463.918365479,2803.575
464.2081604,2963.75
464.497924805,2938.675
464.787780762,3055.375
465.077514648,3356.4
465.367218018,2984.0
465.657012939,3187.2
465.946685791,3586.025
466.236358643,3180.15
466.526092529,2655.65
466.815734863,2658.025
467.105316162,2584.175
467.394927979,2616.025
467.684570312,2472.625
467.974121094,2561.2
468.263671875,2665.075
468.553222656,2451.2
468.842773438,2351.7
469.132232666,2241.65
469.42175293,2253.125
469.711212158,2237.325
470.000640869,2118.325
470.290100098,2176.05
470.579498291,2206.95
470.868835449,2199.8
471.158294678,2171.45
471.447601318,2145.8
471.736907959,2210.925
472.026275635,2295.125
472.315551758,2268.075
472.604797363,2255.55
472.894104004,2394.85
473.183319092,2505.8
473.47253418,2491.225
473.761779785,2474.925
474.05090332,2408.7
474.340087891,2371.375
474.629241943,2294.35
474.918365479,2470.075
475.207427979,2753.65
475.496551514,2765.325
475.785614014,2504.675
476.074645996,2305.875
476.363708496,2401.275
476.652679443,2543.425
476.941650391,2361.875
477.230682373,2191.325
477.519622803,2192.65
477.808502197,2355.2
478.097412109,2635.275
478.386352539,2578.975
478.675201416,2305.625
478.964050293,2200.625
479.25289917,2404.075
479.541717529,2456.425
479.830474854,2288.475
480.11932373,2637.175
480.408050537,2822.3
480.696777344,2434.25
480.985534668,2296.425
481.274200439,2389.775
481.562866211,2655.375
481.851593018,2675.525
482.140197754,2601.45
482.428833008,2450.525
482.717468262,2236.7
483.006011963,2268.4
483.294586182,2396.85
483.5831604,2430.95
483.871673584,2293.925
484.16015625,2440.225
484.448699951,2660.45
484.7371521,2732.675
485.02557373,2731.225
485.314025879,2439.85
485.602416992,3792.75
485.890777588,13509.7
486.179199219,12061.5
486.467559814,3230.35
486.755859375,2334.425
487.044219971,2734.975
487.332519531,2921.8
487.620758057,2516.475
487.908966064,2247.075
488.197265625,2043.65
488.485473633,1959.175
488.773651123,2064.65
489.061859131,2060.475
489.350006104,2012.8
489.638122559,1948.025
489.926300049,1980.05
490.214355469,1919.625
490.502441406,1860.175
490.790527344,1800.5
491.078552246,2010.6
491.366546631,2000.15
491.654602051,1757.8
491.942565918,1828.725
492.230499268,1872.175
492.518493652,1846.75
492.806396484,1872.6
493.094268799,1787.875
493.382202148,1826.875
493.670074463,1939.2
493.957885742,1792.8
494.245727539,1776.5
494.533508301,1964.85
494.821289062,1833.9
495.109100342,1686.075
495.396850586,1630.175
495.684539795,1586.025
495.972290039,1811.625
496.25994873,2157.525
496.547607422,2160.175
496.835296631,1983.85
497.122894287,1637.8
497.410522461,1565.225
497.6980896,1574.475
497.985687256,1537.45
498.273223877,1638.775
498.560760498,1703.025
498.848266602,1723.85
499.135772705,1707.725
499.423217773,1749.65
499.710693359,1855.275
499.998138428,1799.3
500.285522461,1624.275
500.572937012,1547.575
500.860290527,1605.9
501.147644043,1710.5
501.434997559,1933.225
501.722290039,1801.675
502.00958252,1558.225
502.296875,1823.35
502.584106445,1812.45
502.871337891,1626.75
503.158599854,1711.825
503.445770264,1784.375
503.732910156,1772.9
504.020141602,1581.125
504.307220459,1556.65
504.594329834,1587.9
504.881469727,1521.5
505.168518066,1598.85
505.455535889,1669.25
505.742614746,1555.625
506.029632568,1480.675
506.316589355,1675.975
506.603637695,1760.375
506.890563965,1551.7
507.177459717,1396.15
507.464385986,1315.475
507.751312256,1540.5
508.038146973,1611.175
508.325012207,1480.775
508.611877441,1541.475
508.898681641,1541.375
509.185424805,1374.325
509.472259521,1338.175
509.759002686,1430.225
510.045715332,1455.85
510.332458496,1401.3
510.619140625,1457.675
510.905761719,1380.15
511.192504883,1370.775
511.479095459,1407.25
511.765686035,1359.75
512.052307129,1281.525
512.338928223,1220.225
512.625427246,1277.725
512.91204834,1345.55
513.198486328,1320.175
513.484985352,1289.675
513.77142334,1207.3
514.057922363,1254.4
514.344299316,1260.425
514.63079834,1220.25
514.917175293,1195.225
515.203552246,1105.0
515.489868164,1077.1
515.776245117,1200.95
516.0625,1238.15
516.348815918,1154.875
516.635070801,1193.475
516.921325684,1250.8
517.207580566,1175.9
517.493774414,1087.075
517.779968262,1094.625
518.066101074,1131.45
518.352294922,1095.95
518.638366699,1090.225
518.924499512,1169.775
519.210632324,1250.775
519.496643066,1208.85
519.782714844,1115.65
520.068786621,1070.55
520.354736328,1028.625
520.640686035,996.1
520.926757812,1039.3
521.212646484,1117.875
521.498535156,1126.975
521.784484863,1066.25
522.0703125,1000.675
522.356262207,1026.8
522.642089844,1090.875
522.927856445,1092.925
523.213684082,1085.55
523.499511719,1073.325
523.78527832,1115.2
524.070983887,1170.075
524.356750488,1147.05
524.64239502,1100.325
524.928039551,1097.15
525.213806152,1111.175
525.499389648,1096.925
525.784973145,1129.425
526.070617676,1172.175
526.356140137,1129.175
526.641723633,1147.225
526.927307129,1207.8
527.212768555,1211.65
527.498291016,1180.9
527.783752441,1192.525
528.069213867,1167.85
528.354675293,1197.8
528.640014648,1355.125
528.925476074,1439.525
529.21081543,1354.2
529.496154785,1322.05
529.781555176,1292.75
530.066833496,1303.075
530.352050781,1323.075
530.637390137,1317.225
530.922607422,1301.025
531.207824707,1309.625
531.493041992,1295.825
531.778198242,1366.1
532.063354492,1350.925
532.348571777,1284.85
532.633666992,1303.95
532.918762207,1381.65
533.203857422,1470.175
533.488891602,1492.775
533.773925781,1440.875
534.059020996,1423.375
534.343933105,1441.95
534.628967285,1418.6
534.91394043,1444.2
535.198852539,1457.275
535.483703613,1426.4
535.768676758,1369.075
536.053527832,1375.075
536.338317871,1338.275
536.62322998,1257.125
536.90802002,1238.325
537.192810059,1269.75
537.477539062,1345.8
537.762329102,1378.15
538.047058105,1427.725
538.331726074,1459.5
538.616455078,1435.625
538.901123047,1420.45
539.18572998,1461.475
539.470397949,1468.525
539.755004883,1462.325
540.039550781,1420.625
540.32409668,1374.15
540.608703613,1413.025
540.893188477,1511.425
541.17767334,1535.675
541.462158203,1536.175
541.746643066,1481.45
542.031066895,1510.375
542.315429688,1572.65
542.59979248,1563.725
542.884216309,1541.95
543.168579102,1537.5
543.452941895,1543.125
543.737243652,1601.775
544.021484375,1659.825
544.305725098,1638.625
544.590026855,1612.25
544.874267578,1626.175
545.158447266,1689.425
545.442626953,1599.025
545.726806641,1505.05
546.010925293,1538.775
546.29510498,1573.85
546.579162598,1561.025
546.863220215,1595.1
547.147277832,1666.45
547.431335449,1744.675
547.715332031,1813.0
547.999328613,1921.375
548.283325195,1929.35
548.567260742,1774.925
548.851135254,1751.575
549.135070801,1727.375
549.419006348,1632.45
549.702819824,1733.15
549.986755371,1802.725
550.270507812,1766.075
550.554321289,1813.1
550.83807373,1831.075
551.121826172,1782.0
551.405517578,1797.2
551.689331055,1916.175
551.973022461,2132.225
552.256652832,2205.0
552.540344238,2106.175
552.823974609,2083.875
553.107543945,2064.025
553.391174316,2122.7
553.674743652,2175.6
553.958251953,2177.2
554.241821289,2191.375
554.525268555,2139.475
554.808776855,2133.525
555.092285156,2329.05
555.375671387,2416.575
555.659057617,2399.625
555.942504883,2422.675
556.225891113,2467.7
556.509216309,2433.925
556.792541504,2330.1
557.075866699,2410.1
557.359130859,2466.425
557.64239502,2450.2
557.92565918,2528.35
558.208862305,2505.275
558.49206543,2440.7
558.77532959,2456.0
559.058410645,2512.75
559.341552734,2488.475
559.624694824,2549.025
559.907775879,2624.575
560.190856934,2741.225
560.473937988,2739.975
560.756896973,2775.875
561.039978027,2818.625
561.322937012,2770.625
561.605895996,2767.15
561.88885498,2726.15
562.171813965,2733.525
562.454650879,2718.875
562.737548828,2743.75
563.020446777,2819.875
563.303283691,2840.0
563.58605957,2878.25
563.868896484,2883.05
564.151672363,2944.05
564.434387207,2971.6
564.717163086,2939.45
564.99987793,2975.0
565.282531738,3052.475
565.565185547,2981.925
565.847839355,2999.275
566.130432129,3116.225
566.413085938,3095.05
566.695678711,3110.25
566.978149414,3223.35
567.260681152,3376.7
567.543273926,3444.1
567.825744629,3331.725
568.108154297,3383.425
568.390686035,3506.4
568.673095703,3613.625
568.955505371,3674.6
569.237854004,3723.85
569.520202637,3980.775
569.802490234,4194.45
570.084838867,4164.975
570.367126465,3990.75
570.649414062,4009.4
570.93170166,4372.75
571.213928223,4449.0
571.496154785,4195.025
571.778381348,4420.425
572.06048584,4684.575
572.342590332,4217.95
572.624755859,3873.175
572.906860352,3934.275
573.188903809,4605.475
573.470947266,4864.1
573.752990723,4618.8
574.03503418,4711.475
574.317016602,5122.275
574.598937988,4908.05
574.88092041,4799.5
575.162841797,4979.025
575.444763184,4602.3
575.726623535,4331.65
576.008483887,4387.6
576.290344238,4799.325
576.572143555,4993.475
576.853881836,5061.65
577.135681152,4961.375
577.417419434,5008.7
577.699157715,5885.375
577.980895996,6052.975
578.262573242,5384.175
578.544128418,4898.775
578.825866699,4839.25
579.107421875,4525.05
579.388977051,4720.375
579.670593262,5109.025
579.952148438,4929.275
580.233642578,5051.3
580.515197754,5156.775
580.796691895,4845.25
581.078125,5032.225
581.359619141,6578.2
581.640991211,6647.5
581.922363281,5735.6
582.203796387,5791.625
582.485107422,5434.575
582.766418457,5012.875
583.047790527,4861.45
583.329040527,4754.7
583.610290527,4615.275
583.891540527,4724.225
584.172790527,5021.5
584.453918457,5060.325
584.735107422,5117.7
585.016235352,5562.875
585.297363281,5516.975
585.578552246,5328.15
585.859619141,5269.475
586.140625,5049.125
586.421630859,4922.975
586.702697754,4952.15
586.983642578,5172.875
587.264648438,5331.525
587.545654297,5295.375
587.826477051,5228.4
588.107421875,5038.975
588.388305664,5090.275
588.669189453,5175.425
588.950012207,5025.175
589.230834961,4940.475
589.511657715,4982.225
589.792358398,5099.75
590.073120117,5095.075
590.353881836,5068.45
590.63458252,5076.9
590.915283203,5063.775
591.195922852,5051.825
591.4765625,5076.75
591.757202148,5122.25
592.037780762,5098.6
592.31829834,5101.6
592.598937988,5315.525
592.879394531,5493.575
593.159912109,5408.9
593.440429688,5343.95
593.720825195,5321.125
594.001281738,5297.175
594.281677246,5205.1
594.562072754,5220.55
594.842407227,5333.125
595.122802734,5375.5
595.403137207,5345.55
595.683410645,5319.25
595.963623047,5304.875
596.243896484,5277.75
596.524169922,5280.675
596.804382324,5274.75
597.084533691,5318.0
597.364746094,5363.775
597.644836426,5373.5
597.924987793,5362.125
598.205078125,5300.775
598.485107422,5346.2
598.765197754,5435.825
599.045227051,5508.425
599.325195312,5419.55
599.605224609,5369.475
599.885192871,5426.2
600.165100098,5459.625
600.445007324,5393.5
600.724914551,5399.975
601.004760742,5406.4
601.284667969,5444.75
601.56451416,5403.2
601.844238281,5410.975
602.124084473,5397.475
602.403808594,5419.85
602.683532715,5435.275
602.963256836,5421.025
603.242919922,5462.2
603.522583008,5501.0
603.802246094,5494.0
604.081848145,5426.775
604.36138916,5442.1
604.641052246,5449.15
604.920532227,5439.5
605.200073242,5447.2
605.479614258,5489.0
605.759094238,5516.45
606.038574219,5513.925
606.317932129,5453.775
606.597412109,5451.675
606.87677002,5468.275
607.15612793,5493.125
607.435546875,5487.8
607.714782715,5529.125
607.99407959,5444.325
608.273376465,5463.875
608.552612305,5492.9
608.831848145,5477.85
609.111083984,5479.9
609.390258789,5447.5
609.669433594,5470.925
609.948608398,5519.525
610.227722168,5515.025
610.506713867,5440.7
610.785888672,5449.95
611.064880371,5433.375
611.34387207,5475.15
611.622924805,5458.15
611.901916504,5464.95
612.180847168,5402.325
612.459777832,5419.425
612.738647461,5422.675
613.01751709,5389.7
613.296447754,5338.5
613.575317383,5301.275
613.854064941,5245.45
614.132873535,5162.15
614.411621094,5137.025
614.690368652,5084.675
614.969177246,5027.575
615.247802734,4936.325
615.526489258,4929.75
615.805175781,4825.225
616.08380127,4701.525
616.362365723,4642.175
616.640991211,4564.575
616.919555664,4558.225
617.198059082,4647.7
617.4765625,4925.4
617.755126953,5060.35
618.033569336,5073.825
618.311950684,5063.275
618.590454102,5077.125
618.868774414,5047.025
619.147155762,5067.425
619.425598145,5029.175
619.703857422,5039.0
619.982177734,5068.35
620.260498047,5035.85
620.538757324,5036.1
620.816955566,5010.825
621.095214844,4967.775
621.373413086,4984.05
621.651550293,5050.425
621.929748535,5064.35
622.207824707,5050.45
622.485900879,5067.825
622.764038086,5044.6
623.042053223,5079.2
623.320007324,5116.275
623.598083496,5106.625
623.876037598,5104.875
624.153991699,5116.625
624.432006836,5144.225
624.709838867,5148.525
624.987731934,5129.6
625.265563965,5116.65
625.543395996,5142.65
625.821228027,5187.275
626.098999023,5182.175
626.376831055,5221.175
626.654541016,5232.05
626.932250977,5295.975
627.209960938,5333.125
627.487670898,5356.5
627.765319824,5357.5
628.04296875,5357.825
628.320495605,5361.75
628.598083496,5355.95
628.875671387,5394.7
629.153259277,5434.55
629.430725098,5479.8
629.708251953,5480.625
629.985656738,5492.425
630.263122559,5523.55
630.540588379,5537.05
630.817932129,5573.3
631.095275879,5599.525
631.372680664,5639.925
631.649963379,5693.625
631.927246094,5730.025
632.204589844,5746.175
632.481811523,5823.675
632.759033203,5874.125
633.036254883,5915.95
633.313415527,5990.9
633.590576172,6051.85
633.867736816,6141.575
634.144836426,6199.3
634.421875,6231.3
634.698913574,6304.65
634.976013184,6343.875
635.252990723,6412.65
635.529968262,6453.6
635.807006836,6526.225
636.08392334,6505.575
636.360839844,6420.5
636.637756348,6311.575
636.914611816,6302.125
637.191467285,6286.425
637.468261719,6374.625
637.745056152,6349.325
638.021789551,6349.3
638.298583984,6345.05
638.575317383,6398.25
638.851989746,6392.05
639.12878418,6404.525
639.405395508,6392.475
639.682006836,6418.275
639.958618164,6433.975
640.235229492,6405.65
640.511779785,6457.85
640.788330078,6445.425
641.064880371,6426.625
641.341308594,6424.2
641.617797852,6426.05
641.894226074,6449.45
642.170654297,6458.225
642.44708252,6437.05
642.723388672,6458.45
642.999755859,6448.35
643.276123047,6455.725
643.552429199,6404.4
643.828674316,6420.5
644.104919434,6396.225
644.381164551,6385.275
644.657348633,6408.175
644.933532715,6358.45
645.209716797,6389.025
645.485839844,6387.925
645.761901855,6416.875
646.038024902,6381.6
646.314086914,6404.225
646.590087891,6383.775
646.866149902,6431.0
647.142150879,6384.825
647.41809082,6352.45
647.694030762,6331.625
647.969970703,6338.925
648.245788574,6390.375
648.521728516,6367.7
648.797546387,6338.7
649.073303223,6365.575
649.349182129,6346.375
649.624938965,6341.4
649.900634766,6347.2
650.176391602,6326.9
650.452087402,6306.075
650.727783203,6342.275
651.003479004,6335.975
651.279052734,6313.6
651.554626465,6308.8
651.83026123,6315.225
652.105773926,6336.875
652.381286621,6280.9
652.656860352,6302.15
652.932312012,6321.35
653.207763672,6315.8
653.483215332,6351.925
653.758605957,6345.725
654.033935547,6343.1
654.309326172,6312.975
654.584716797,6337.625
654.859985352,6361.975
655.135253906,6379.1
655.410583496,6392.075
655.685791016,7368.8
655.9609375,11495.525
656.236206055,11219.725
656.511291504,7430.075
656.786437988,6534.025
657.061645508,6436.975
657.336669922,6426.375
657.611694336,6441.325
657.886779785,6460.4
658.161804199,6510.025
658.436828613,6482.4
658.711791992,6488.625
658.986755371,6493.025
659.261657715,6489.65
659.536621094,6518.075
659.811401367,6517.775
660.086303711,6548.35
660.36114502,6527.85
660.635864258,6544.15
660.910644531,6558.225
661.185424805,6571.675
661.460205078,6585.55
661.734863281,6574.025
662.009521484,6578.125
662.284179688,6589.7
662.558776855,6633.125
662.833435059,6651.5
663.108032227,6638.3
663.382568359,6641.45
663.657043457,6684.7
663.93157959,6724.475
664.206054688,6682.85
664.48046875,6760.675
664.755004883,6764.425
665.02935791,6756.1
665.303710938,6780.5
665.578125,6802.05
665.852416992,6788.75
666.126708984,6797.25
666.401062012,6813.875
666.675292969,6860.125
666.949462891,6870.525
667.223754883,6842.875
667.497924805,6885.85
667.772094727,6924.2
668.046264648,6878.95
668.3203125,6951.3
668.594421387,6967.8
668.868469238,6965.375
669.14251709,6974.65
669.416503906,7005.875
669.690551758,7000.7
669.964477539,7029.825
670.23840332,7039.3
670.512329102,7035.475
670.786254883,6999.7
671.060058594,7087.2
671.333984375,7105.425
671.607788086,7110.525
671.881530762,7085.6
672.155334473,7122.35
672.429077148,7146.475
672.702758789,7164.775
672.97644043,7146.075
673.25012207,7160.95
673.523742676,7118.075
673.797302246,7161.375
674.070922852,7217.275
674.344482422,7210.05
674.618041992,7216.35
674.891601562,7220.875
675.165100098,7239.8
675.438476562,7238.275
675.711975098,7266.675
675.985412598,7251.225
676.258789062,7264.175
676.532165527,7284.675
676.805480957,7268.925
677.078796387,7291.65
677.352111816,7293.7
677.625366211,7303.725
677.898620605,7288.7
678.171875,7367.075
678.445007324,7308.9
678.718200684,7351.375
678.991394043,7362.425
679.264404297,7343.925
679.537536621,7414.65
679.81060791,7413.65
680.083679199,7376.475
680.356689453,7407.425
680.629699707,7429.625
680.902648926,7388.1
681.175598145,7444.75
681.448547363,7483.475
681.721435547,7435.35
681.99420166,7456.525
682.267150879,7414.4
682.539916992,7507.3
682.812744141,7479.15
683.085510254,7462.875
683.358215332,7486.925
683.63092041,7473.9
683.903625488,7494.45
684.176330566,7466.875
684.448913574,7448.675
684.721557617,7453.875
684.99420166,7508.1
685.266662598,7492.625
685.539245605,7495.975
685.811767578,7555.875
686.084289551,7545.2
686.356689453,7575.225
686.629150391,7595.425
686.901550293,7637.175
687.17401123,7618.275
687.446350098,7653.25
687.718688965,7657.6
687.990966797,7669.675
688.263305664,7695.525
688.535522461,7673.75
688.807739258,7694.775
689.079956055,7752.275
689.352172852,7772.975
689.624328613,7737.7
689.896484375,7772.025
690.168518066,7776.9
690.440612793,7810.075
690.71270752,7818.125
690.984741211,7808.275
691.256713867,7840.85
691.528747559,7826.1
691.800720215,7851.975
692.072631836,7862.525
692.344543457,7886.7
692.616394043,7885.65
692.888244629,7914.525
693.160095215,7936.85
693.431945801,7979.125
693.703674316,7941.475
693.975463867,7927.25
694.247131348,7985.075
694.518859863,7976.5
694.790588379,8026.55
695.062255859,8019.9
695.33380127,7971.075
695.60546875,7994.825
695.87701416,8003.75
696.148498535,8028.675
696.42010498,8039.625
696.691589355,8068.25
696.96307373,8106.525
697.234558105,8129.575
697.50592041,8119.175
697.777282715,8107.5
698.048706055,8125.475
698.320068359,8155.0
698.591308594,8126.075
698.862670898,8141.6
699.133972168,8186.0
699.405151367,8153.025
699.676391602,8190.6
699.947570801,8153.95
700.21875,8192.0
700.489868164,8191.075
700.761047363,8208.0
701.032104492,8219.325
701.303100586,8187.375
701.57421875,8247.575
701.845214844,8279.95
702.116149902,8263.7
702.387207031,8244.85
702.65814209,8278.7
702.928955078,8310.1
703.199951172,8280.05
703.47076416,8273.775
703.741577148,8258.925
704.012451172,8308.9
704.28314209,8317.625
704.553955078,8293.725
704.824707031,8316.875
705.095397949,8358.25
705.366027832,8359.9
705.63671875,8370.85
705.907348633,8333.9
706.17791748,8355.675
706.448486328,8352.875
706.719055176,8337.25
706.989562988,8404.575
707.260131836,8408.05
707.530517578,8427.625
707.800964355,8411.525
708.071411133,8344.725
708.341796875,8376.875
708.612182617,8373.45
708.882446289,8333.75
709.152893066,8352.85
709.423156738,8387.775
709.693359375,8353.025
709.963623047,8368.75
710.233825684,8403.0
710.503967285,8347.4
710.774169922,8388.975
711.044311523,8356.725
711.31439209,8374.175
711.584533691,8395.525
711.854553223,8375.9
712.124572754,8380.675
712.39465332,8346.125
712.664611816,8387.65
712.934509277,8419.9
713.204467773,8399.975
713.474365234,8441.925
713.74420166,8427.85
714.014099121,8455.575
714.283874512,8441.9
714.553710938,8446.675
714.823486328,8428.775
715.093200684,8412.725
715.362915039,8452.125
715.632629395,8415.525
715.902282715,8400.85
716.171875,8401.075
716.441589355,8413.025
716.711181641,8367.025
716.980712891,8403.625
717.250244141,8392.375
717.519775391,8385.3
717.78918457,8388.675
718.058654785,8434.95
718.328125,8467.85
718.597473145,8425.65
718.866882324,8419.975
719.136230469,8419.8
719.405578613,8431.425
719.674865723,8458.45
719.944152832,8419.0
720.213439941,8382.225
720.48260498,8436.875
720.75177002,8421.5
721.020996094,8421.725
721.290100098,8405.25
721.559204102,8382.6
721.828308105,8398.275
722.097351074,8393.3
722.366455078,8393.3
722.635437012,8352.325
722.904418945,8350.05
723.173400879,8377.6
723.442321777,8382.125
723.711181641,8359.2
723.980102539,8368.025
724.248962402,8398.6
724.51776123,8360.425
724.786560059,8404.175
725.055358887,8382.5
725.324035645,8338.425
725.592834473,8349.425
725.86151123,8346.5
726.130187988,8324.4
726.398803711,8307.825
726.667419434,8329.1
726.935974121,8303.5
727.204528809,8240.375
727.473083496,8243.05
727.741638184,8225.0
728.010070801,8172.2
728.278564453,8197.65
728.546936035,8182.55
728.815368652,8134.4
729.08380127,8068.95
729.352111816,8057.15
729.620361328,7987.0
729.88873291,8015.325
730.156982422,8053.225
730.425231934,8059.025
730.693481445,8054.45
730.961669922,8106.55
731.229797363,8121.45
731.49798584,8116.5
731.766113281,8179.9
732.034118652,8230.875
732.302246094,8292.55
732.570251465,8307.5
732.838256836,8352.7
733.106262207,8394.1
733.374145508,8428.85
733.642089844,8467.0
733.909973145,8476.475
734.177856445,8571.2
734.445678711,8626.0
734.713562012,8730.7
734.981323242,8697.8
735.249084473,8765.1
735.516845703,8922.85
735.784545898,8962.375
736.052185059,8990.325
736.319885254,9068.325
736.587524414,9130.925
736.855102539,9149.425
737.122619629,9279.625
737.390197754,9317.45
737.657714844,9405.0
737.925170898,9446.025
738.192749023,9542.3
738.460144043,9595.75
738.727539062,9652.075
738.994995117,9734.55
739.262329102,9817.4
739.529663086,9898.1
739.79699707,9895.125
740.06427002,9966.45
740.331481934,10045.5
740.598754883,10074.025
740.865905762,10082.0
741.133056641,10237.5
741.40032959,10220.2
741.667358398,10319.775
741.934448242,10334.975
742.201599121,10366.875
742.468566895,10462.3
742.735534668,10498.65
743.002563477,10511.7
743.26953125,10540.125
743.536437988,10603.525
743.803405762,10667.55
744.0703125,10608.35
744.337097168,10689.3
744.604003906,10581.5
744.870727539,10674.7
745.137512207,10699.65
745.40423584,10704.925
745.670959473,10697.775
745.93762207,10697.4
746.204284668,10691.1
746.470947266,10715.3
746.737548828,10725.15
747.004089355,10749.6
747.270751953,10739.575
747.53717041,10780.625
747.803710938,10713.825
748.070251465,10670.775
748.336608887,10664.925
748.603027344,10651.675
748.869445801,10651.875
749.135803223,10663.325
749.402099609,10699.625
749.668457031,10687.05
749.934753418,10632.625
750.20098877,10585.325
750.467224121,10616.25
750.733459473,10574.25
750.999572754,10543.1
751.26574707,10460.075
751.531860352,10511.375
751.797912598,10477.55
752.064025879,10427.175
752.330078125,10397.775
752.596069336,10377.75
752.862060547,10346.1
753.127990723,10364.275
753.393920898,10301.125
753.659912109,10262.225
753.925720215,10309.95
754.19152832,10213.75
754.457397461,10194.1
754.723144531,10143.2
754.988952637,10138.25
755.254699707,10130.7
755.520385742,10142.875
755.786071777,10134.5
756.051696777,10099.0
756.317382812,10046.25
756.582946777,10018.125
756.848510742,10041.025
757.114074707,9972.625
757.379577637,9943.125
757.645080566,10003.55
757.910583496,9965.0
758.175964355,9888.0
758.441345215,9856.8
758.706848145,9734.825
758.972106934,9745.3
759.237426758,9757.275
759.502807617,9761.725
759.768005371,9760.175
760.03326416,9709.975
760.298522949,9647.675
760.563659668,9656.95
760.828857422,9623.95
761.093994141,9648.7
761.359130859,9587.325
761.624206543,9584.6
761.889282227,9521.6
762.15423584,9506.025
762.419250488,9492.075
762.684265137,9427.275
762.949157715,9420.725
763.214050293,9389.2
763.479003906,9408.075
763.743835449,9337.975
764.008666992,9300.925
764.2734375,9287.25
764.538208008,9321.425
764.802978516,9316.25
765.067687988,9292.425
765.332397461,9284.0
765.597045898,9248.775
765.861694336,9223.25
766.126342773,9167.75
766.390930176,9155.475
766.655395508,9109.925
766.920043945,9094.025
767.184509277,9061.975
767.448974609,9075.3
767.713439941,9041.2
767.977783203,8999.15
768.2421875,9012.425
768.506591797,8942.375
768.770874023,9050.55
769.03515625,9002.675
769.299499512,8969.5
769.563720703,8960.25
769.827941895,8890.875
770.092163086,8935.075
770.356323242,8890.05
770.620483398,8915.975
770.88458252,8911.375
771.148681641,8906.625
771.412719727,8873.425
771.676757812,8880.875
771.940734863,8794.4
772.204711914,8803.0
772.468688965,8774.575
772.73260498,8777.075
772.996459961,8769.25
773.260314941,7786.625
773.524169922,1016.425
773.787963867,149.525
774.051696777,122.675
774.315551758,117.925
774.579223633,120.15
774.842895508,119.55
775.106567383,122.325
775.370239258,119.1
775.633789062,119.85
775.897399902,125.775
776.160949707,118.3
776.424499512,119.05
776.687988281,123.05
776.951477051,125.175
777.214904785,117.8
777.47833252,120.45
