191.299911499,100.175
191.603515625,100.9
191.907119751,97.2
192.210693359,106.0
192.514251709,97.7
192.817810059,102.375
193.121368408,102.225
193.42489624,105.95
193.728408813,99.875
194.031936646,100.05
194.33543396,92.525
194.638916016,112.075
194.94241333,95.9
195.245880127,97.025
195.549331665,94.45
195.852767944,101.675
196.156204224,199.7
196.459625244,194.15
196.763015747,192.975
197.066436768,201.45
197.369812012,194.75
197.673187256,199.975
197.9765625,189.8
198.279922485,194.475
198.583251953,190.775
198.886581421,195.775
199.18989563,199.9
199.493209839,200.525
199.79649353,191.825
200.09979248,205.95
200.403076172,197.15
200.706314087,199.425
201.009567261,194.975
201.312820435,200.35
201.616027832,188.3
201.919235229,182.45
202.222457886,190.825
202.525634766,193.575
202.828826904,186.525
203.132003784,182.1
203.435150146,188.55
203.738296509,188.3
204.041412354,186.3
204.344558716,186.95
204.647659302,191.7
204.950759888,195.325
205.253845215,190.9
205.556930542,188.075
205.859985352,190.475
206.163024902,187.7
206.466079712,189.35
206.769104004,197.95
207.072113037,188.625
207.375137329,194.5
207.678131104,191.825
207.981109619,196.15
208.284088135,191.725
208.587036133,197.725
208.889984131,196.625
209.19291687,200.975
209.495849609,198.225
209.798751831,200.175
210.101654053,197.425
210.404556274,197.575
210.707427979,193.85
211.010269165,205.9
211.31312561,203.8
211.615982056,202.175
211.918807983,207.4
212.221618652,196.025
212.524429321,197.0
212.827224731,207.85
213.130004883,205.625
213.432769775,205.325
213.735534668,208.075
214.038269043,210.45
214.341003418,213.975
214.643737793,217.425
214.946456909,218.775
215.249145508,222.85
215.551834106,223.325
215.854507446,220.35
216.157165527,218.45
216.45980835,219.4
216.762451172,233.15
217.065078735,227.4
217.36769104,229.475
217.670303345,230.775
217.972885132,237.225
218.275466919,238.725
218.578048706,233.4
218.880599976,250.175
219.183120728,254.575
219.485656738,265.05
219.788192749,286.55
220.090682983,305.175
220.393188477,347.725
220.695663452,391.825
220.998138428,429.3
221.300582886,498.35
221.603042603,536.725
221.905487061,604.675
222.207901001,689.8
222.510299683,767.375
222.812728882,867.85
223.115097046,973.875
223.41746521,1083.55
223.719848633,1186.95
224.022171021,1287.525
224.324508667,1405.075
224.626846313,1549.425
224.929168701,1658.65
225.231460571,1786.125
225.533737183,1905.75
225.836013794,2037.15
226.138290405,2136.3
226.440536499,2258.175
226.742767334,2371.9
227.044998169,2463.175
227.347213745,2606.875
227.649429321,2688.625
227.951629639,2778.625
228.253799438,2858.2
228.555953979,2937.275
228.858123779,3021.25
229.160263062,3091.0
229.462371826,3157.475
229.764511108,3219.725
230.066619873,3254.625
230.36869812,3340.95
230.670776367,3375.7
230.972854614,3464.175
231.274902344,3553.075
231.576950073,3619.625
231.878967285,3663.75
232.180999756,3750.425
232.48298645,3815.35
232.784988403,3900.475
233.086975098,3950.325
233.388946533,4011.85
233.69090271,4107.825
233.992858887,4166.2
234.294769287,4205.425
234.596694946,4254.45
234.898605347,4325.225
235.200500488,4357.85
235.502380371,4405.525
235.804244995,4462.6
236.106109619,4459.75
236.407958984,4488.925
236.709777832,4534.075
237.011581421,4544.325
237.313400269,4564.225
237.615203857,4548.9
237.916976929,4615.125
238.21875,4604.725
238.520507812,4612.675
238.822250366,4642.35
239.12399292,4649.175
239.425704956,4668.225
239.727401733,4632.15
240.02911377,4668.7
240.330780029,4647.8
240.632446289,4661.575
240.93409729,4673.325
241.23576355,4660.525
241.537384033,4693.375
241.839004517,4698.425
242.140594482,4691.625
242.442199707,4740.725
242.743774414,4738.65
243.045333862,4741.45
243.346923828,4753.925
243.648452759,4766.875
243.949966431,4771.15
244.251495361,4766.525
244.552993774,4767.05
244.854492188,4748.4
245.155975342,4739.275
245.457443237,4735.275
245.758880615,4722.45
246.060333252,4698.7
246.36177063,4685.8
246.66317749,4646.275
246.964569092,4619.375
247.265945435,4628.325
247.567337036,4599.975
247.86869812,4618.425
248.170059204,4579.65
248.471389771,4569.35
248.772705078,4596.15
249.074035645,4605.9
249.375335693,4624.925
249.676620483,4647.625
249.977890015,4667.2
250.279159546,4687.725
250.58039856,4717.35
250.881637573,4736.3
251.182876587,4790.625
251.484069824,4847.4
251.785263062,4852.65
252.086456299,4929.375
252.387619019,4956.35
252.688781738,4976.825
252.989929199,5017.825
253.291061401,5056.325
253.592178345,5144.625
253.893280029,5168.625
254.194366455,5208.8
254.49546814,5219.85
254.796524048,5222.925
255.097579956,5276.575
255.398620605,5259.025
255.699645996,5317.75
256.000640869,5292.075
256.30166626,5336.625
256.602661133,5356.55
256.903656006,5322.05
257.204589844,5336.475
257.505523682,5304.65
257.80645752,5343.25
258.107391357,5330.8
258.408294678,5310.85
258.709228516,5281.0
259.010070801,5227.25
259.310943604,5219.125
259.611846924,5179.7
259.912658691,5156.075
260.213500977,5132.2
260.514343262,5119.25
260.815124512,5062.125
261.115936279,5020.725
261.416717529,5003.4
261.717468262,5010.725
262.018218994,4970.675
262.318969727,4982.825
262.619689941,5029.1
262.920410156,5070.9
263.221130371,5090.55
263.521789551,5150.575
263.822479248,5209.15
264.123138428,5264.45
264.42376709,5272.9
264.72442627,5278.475
265.025054932,5320.0
265.325622559,5341.3
265.626251221,5347.2
265.926818848,5376.025
266.227386475,5318.8
266.527954102,5335.275
266.828460693,5333.525
267.12902832,5274.5
267.429534912,5264.15
267.730010986,5239.825
268.030517578,5241.65
268.330993652,5217.6
268.631439209,5209.35
268.931915283,5201.925
269.232299805,5201.775
269.532745361,5210.075
269.8331604,5169.775
270.133544922,5167.325
270.433929443,5206.8
270.734313965,5198.55
271.034637451,5222.325
271.334991455,5232.075
271.635314941,5298.9
271.935638428,5309.85
272.235931396,5365.125
272.536254883,5437.325
272.836486816,5507.9
273.136749268,5583.175
273.437011719,5707.6
273.737213135,5782.0
274.037445068,5891.875
274.337677002,5990.45
274.6378479,6087.25
274.938049316,6230.75
275.238220215,6359.625
275.538360596,6502.225
275.838500977,6595.575
276.138641357,6756.175
276.438751221,6817.55
276.738830566,6946.0
277.03894043,7017.725
277.338989258,7158.725
277.639038086,7258.0
277.939056396,7357.625
278.239105225,7402.0
278.539093018,7488.175
278.839141846,7579.3
279.139129639,7640.175
279.439086914,7753.1
279.739044189,7817.3
280.039001465,7930.775
280.338928223,7958.4
280.63885498,8039.85
280.938781738,8098.45
281.238647461,8125.1
281.538513184,8147.775
281.838409424,8217.875
282.138244629,8263.875
282.438079834,8254.275
282.737945557,8311.0
283.037719727,8363.925
283.337524414,8360.425
283.637298584,8377.65
283.937072754,8440.625
284.236816406,8421.65
284.536560059,8408.6
284.836303711,8464.425
285.136016846,8485.475
285.43572998,8518.675
285.735412598,8495.625
286.035064697,8494.325
286.334747314,8575.4
286.634368896,8545.4
286.933990479,8484.65
287.233642578,8444.25
287.533203125,8431.425
287.832824707,8387.95
288.132385254,8267.875
288.431945801,8131.425
288.731506348,7997.525
289.031036377,7820.95
289.330566406,7713.625
289.630065918,7702.3
289.92956543,7644.45
290.229034424,7785.65
290.528503418,7941.0
290.827941895,8099.125
291.127380371,8253.6
291.42678833,8387.9
291.726226807,8517.075
292.025604248,8536.825
292.324981689,8574.75
292.624359131,8584.45
292.923736572,8598.825
293.223052979,8622.175
293.522369385,8570.825
293.821685791,8580.9
294.12097168,8529.075
294.420257568,8497.85
294.719543457,8479.325
295.018768311,8461.75
295.318023682,8401.575
295.617248535,8299.725
295.916442871,8261.8
296.215667725,8178.025
296.514862061,8049.1
296.813995361,7807.325
297.11315918,7605.65
297.412322998,7453.375
297.711425781,7433.7
298.010559082,7599.6
298.309631348,7800.05
298.608734131,8000.825
298.907806396,8213.05
299.206848145,8333.825
299.505889893,8444.9
299.804901123,8557.075
300.103912354,8604.875
300.402954102,8694.975
300.701904297,8759.6
301.00088501,8859.075
301.299835205,8903.475
301.5987854,8929.275
301.897735596,9039.425
302.196624756,9067.15
302.495513916,9175.3
302.794403076,9173.75
303.093292236,9216.375
303.392120361,9309.225
303.690979004,9359.025
303.989837646,9412.175
304.288604736,9476.475
304.587402344,9463.4
304.886199951,9508.975
305.184967041,9546.975
305.483734131,9616.45
305.782501221,9605.425
306.081176758,9628.125
306.37991333,9648.225
306.678619385,9685.45
306.977294922,9691.025
307.275970459,9712.675
307.574645996,9738.85
307.873260498,9696.35
308.171875,9700.075
308.470489502,9692.4
308.769104004,9594.575
309.067687988,9605.625
309.366241455,9621.475
309.664794922,9563.775
309.963348389,9558.675
310.261871338,9552.525
310.560394287,9580.1
310.858856201,9589.15
311.157348633,9635.075
311.455810547,9631.65
311.754272461,9653.95
312.052703857,9704.15
312.351135254,9737.55
312.649536133,9799.85
312.947937012,9747.025
313.246307373,9757.275
313.544647217,9750.7
313.843017578,9671.65
314.141387939,9647.15
314.439697266,9711.425
314.738006592,9611.8
315.036315918,9549.7
315.334564209,9467.275
315.6328125,9390.45
315.931091309,9336.475
316.229309082,9189.75
316.527526855,9058.45
316.825744629,9025.2
317.123901367,8891.075
317.422088623,8831.575
317.720245361,8844.15
318.0184021,8878.25
318.316497803,8919.15
318.614654541,8965.875
318.912750244,9037.55
319.21081543,9026.5
319.50894165,9047.825
319.806945801,9062.925
320.104980469,9053.0
320.403045654,9044.275
320.701049805,9027.325
320.999023438,8995.275
321.297027588,8946.85
321.595001221,8906.1
321.892913818,8869.9
322.190887451,8778.3
322.488830566,8764.875
322.786712646,8732.525
323.084625244,8613.5
323.382507324,8576.725
323.680358887,8496.375
323.978210449,8402.625
324.276062012,8338.7
324.573852539,8307.075
324.871643066,8245.875
325.169464111,8156.225
325.467224121,8101.3
325.764984131,8027.3
326.062744141,7963.75
326.360473633,7863.375
326.658203125,7797.1
326.955871582,7718.1
327.253570557,7676.65
327.551239014,7586.675
327.848907471,7542.425
328.146514893,7452.875
328.444152832,7390.975
328.741790771,7311.5
329.039367676,7291.725
329.336914062,7208.725
329.634521484,7134.5
329.932067871,7082.4
330.229553223,6977.1
330.527160645,6966.275
330.824615479,6874.325
331.12210083,6798.8
331.419586182,6696.7
331.717041016,6631.525
332.014465332,6547.075
332.311920166,6526.575
332.609313965,6447.275
332.906707764,6458.925
333.204101562,6420.5
333.501495361,6420.3
333.798828125,6474.125
334.096160889,6527.425
334.39352417,6604.425
334.690795898,6636.175
334.988098145,6674.9
335.285400391,6743.275
335.582641602,6741.95
335.879882812,6788.25
336.177124023,6810.65
336.474334717,6863.675
336.77154541,6861.475
337.068725586,6877.825
337.365905762,6889.875
337.66305542,6912.5
337.960205078,6933.875
338.257324219,6949.3
338.554443359,6923.025
338.8515625,6980.825
339.148590088,6946.3
339.445648193,6975.9
339.742736816,6930.925
340.039764404,6931.225
340.336761475,6878.2
340.63381958,6831.025
340.930755615,6809.775
341.227722168,6716.05
341.524688721,6608.675
341.821624756,6574.75
342.118560791,6607.675
342.415496826,6670.65
342.712402344,6839.125
343.009246826,6988.975
343.306121826,7108.625
343.602966309,7157.475
343.899810791,7250.4
344.196624756,7324.775
344.493438721,7360.05
344.79019165,7407.875
345.086975098,7458.575
345.383758545,7531.35
345.680480957,7500.05
345.977203369,7504.975
346.273956299,7552.85
346.570617676,7530.025
346.86730957,7566.05
347.163970947,7541.1
347.460601807,7552.45
347.757232666,7582.55
348.053894043,7553.15
348.350463867,7508.025
348.647064209,7466.125
348.943634033,7438.325
349.24017334,7490.025
349.536712646,7428.25
349.833251953,7419.725
350.129760742,7413.3
350.426208496,7395.125
350.722747803,7355.55
351.019195557,7356.675
351.315612793,7286.875
351.612060547,7248.85
351.908508301,7188.65
352.204864502,7137.925
352.501281738,7069.8
352.797637939,7034.65
353.093963623,6927.725
353.390319824,6858.275
353.686645508,6785.2
353.982940674,6694.225
354.27923584,6642.0
354.575531006,6590.0
354.871765137,6599.625
355.167999268,6555.075
355.464233398,6556.275
355.760437012,6571.9
356.056640625,6562.825
356.352813721,6554.25
356.648956299,6539.025
356.945129395,6582.075
357.241271973,6570.575
357.537384033,6598.575
357.833496094,6530.6
358.129577637,6526.5
358.425628662,6500.025
358.721679688,6451.3
359.017730713,6444.0
359.313720703,6380.85
359.609710693,6363.55
359.905761719,6291.675
360.201721191,6247.45
360.497650146,6176.75
360.793609619,6142.625
361.089538574,6083.8
361.385437012,5983.2
361.681365967,5938.625
361.977233887,5889.875
362.273071289,5838.575
362.568908691,5703.0
362.864746094,5603.475
363.160552979,5447.575
363.456359863,5262.3
363.752166748,5134.875
364.047912598,5024.9
364.343658447,4982.825
364.639434814,5027.425
364.935119629,5055.95
365.230834961,5143.5
365.526550293,5140.3
365.822174072,5174.925
366.117858887,5191.05
366.413482666,5215.975
366.709075928,5247.8
367.004730225,5130.65
367.300292969,5147.8
367.595855713,5190.65
367.891448975,5058.45
368.186981201,4974.35
368.482513428,4914.025
368.778015137,4902.875
369.073547363,4848.825
369.36895752,4864.7
369.664428711,4764.65
369.95993042,4648.5
370.255310059,4600.55
370.550720215,4560.925
370.846160889,4509.725
371.14151001,4476.15
371.436859131,4463.25
371.73223877,4434.025
372.027557373,4394.275
372.322875977,4345.775
372.618164062,4317.4
372.913482666,4263.525
373.208709717,4236.325
373.503967285,4171.45
373.799194336,4142.075
374.094421387,4115.75
374.389648438,4107.2
374.684844971,4086.55
374.979980469,4121.625
375.275146484,4135.175
375.570281982,4171.975
375.865386963,4165.625
376.160522461,4106.625
376.455596924,4122.325
376.750640869,4204.6
377.045715332,4215.375
377.340759277,4243.075
377.635772705,4310.75
377.93081665,4346.275
378.225769043,4419.45
378.520751953,4479.225
378.815734863,4423.425
379.110656738,4597.375
379.405548096,4758.95
379.700500488,4605.5
379.995391846,4371.4
380.290252686,4436.9
380.585083008,4531.975
380.879974365,4575.65
381.17477417,4487.175
381.469543457,4432.225
381.764404297,4417.725
382.059143066,4457.325
382.353912354,4558.1
382.648651123,4615.35
382.943389893,4617.85
383.238067627,4418.125
383.532775879,4422.9
383.827484131,4359.55
384.12210083,4358.15
384.416778564,4296.7
384.711425781,4195.525
385.006011963,4231.925
385.300628662,4231.0
385.595184326,4292.225
385.88973999,4391.825
386.184295654,4504.675
386.478820801,4575.025
386.77331543,4657.5
387.067840576,4768.725
387.362335205,4873.25
387.656768799,4945.975
387.951202393,4976.4
388.245635986,5053.025
388.540039062,5114.55
388.834472656,5187.575
389.128875732,5094.075
389.423187256,4854.325
389.717559814,4794.475
390.011871338,4907.2
390.306182861,4938.8
390.600463867,4951.325
390.894775391,5026.7
391.189025879,5059.125
391.48324585,5057.875
391.777526855,5092.5
392.071685791,5296.35
392.365875244,5411.5
392.660064697,5476.725
392.95425415,5841.3
393.248382568,5812.725
393.542510986,5317.9
393.836608887,5140.475
394.130706787,5133.125
394.424804688,5071.275
394.71887207,5200.225
395.012878418,5185.925
395.306915283,5059.125
395.600921631,4983.05
395.894927979,4974.075
396.188903809,5020.45
396.482879639,5023.375
396.776794434,5214.525
397.070739746,5187.05
397.364654541,5198.55
397.658538818,5631.675
397.952423096,5645.15
398.246307373,5583.5
398.540100098,6159.625
398.833953857,6027.775
399.127746582,5524.125
399.421508789,5545.6
399.715301514,5470.325
400.009063721,5364.975
400.30279541,5221.825
400.596496582,5124.15
400.890258789,5295.725
401.183929443,5384.75
401.47756958,5273.45
401.771240234,5026.3
402.064880371,5035.175
402.35848999,5094.35
402.652130127,4999.325
402.945678711,5070.125
403.239257812,4997.5
403.532775879,4945.1
403.82635498,4998.625
404.119842529,4909.5
404.413360596,4900.3
404.706848145,4967.75
405.000274658,4887.2
405.293762207,4964.625
405.587188721,5024.525
405.880584717,4858.225
406.17401123,4674.6
406.467407227,4466.95
406.760742188,4475.125
407.054107666,4532.275
407.347442627,4441.7
407.640716553,4421.825
407.934051514,4487.65
408.227325439,4555.225
408.520568848,4768.925
408.813842773,4864.45
409.107086182,4663.775
409.400238037,4595.4
409.693450928,4558.05
409.986633301,4669.325
410.279754639,4585.9
410.572875977,4268.1
410.86605835,4204.65
411.159118652,4212.775
411.452209473,4234.65
411.745330811,4090.375
412.038360596,4017.575
412.331390381,4041.325
412.624420166,4092.625
412.917388916,3985.725
413.210388184,3806.35
413.503387451,3787.175
413.796295166,3674.05
414.089233398,3503.25
414.382141113,3396.075
414.675048828,3396.225
414.967926025,3431.75
415.260803223,3371.75
415.55368042,3395.7
415.846466064,3344.325
416.139282227,3465.05
416.432098389,3584.6
416.724853516,3577.9
417.017608643,3517.4
417.31036377,3516.975
417.603088379,3654.775
417.895782471,3626.95
418.188476562,3587.925
418.481140137,3666.4
418.773803711,3731.975
419.066436768,3694.05
419.359039307,3758.0
419.651641846,3773.725
419.944244385,3766.95
420.236816406,3736.075
420.529327393,3960.0
420.821899414,4015.8
421.114379883,3946.625
421.406860352,4243.15
421.699371338,4471.875
421.991821289,4411.825
422.284240723,4213.825
422.576721191,4050.55
422.869110107,3933.85
423.161468506,3875.925
423.453857422,3908.15
423.74621582,3792.625
424.038543701,3651.625
424.330871582,3614.95
424.623168945,3546.8
424.915435791,3694.525
425.207702637,3659.175
425.499969482,3605.325
425.792205811,3531.4
426.084411621,3280.9
426.376617432,3366.85
426.668762207,3444.575
426.9609375,3303.775
427.253082275,3440.0
427.545196533,3857.8
427.837310791,3576.75
428.129425049,3266.825
428.421447754,3506.2
428.713531494,3510.825
429.005554199,3490.725
429.297576904,3496.925
429.589599609,3945.25
429.881561279,4295.05
430.173522949,4061.825
430.465484619,3992.8
430.757415771,4097.55
431.049316406,3840.025
431.341186523,3596.8
431.633117676,3484.675
431.924957275,3186.425
432.21673584,3067.025
432.508636475,3218.125
432.800415039,3245.575
433.092163086,3124.175
433.383972168,3108.975
433.675689697,3839.3
433.967437744,4354.675
434.259155273,3356.325
434.550872803,3045.275
434.842498779,3083.9
435.134185791,3224.875
435.425842285,3254.8
435.717437744,3163.475
436.009063721,2956.975
436.30065918,3091.225
436.592224121,3472.85
436.883758545,3262.8
437.175323486,2990.25
437.466827393,2966.75
437.758331299,2984.2
438.049804688,3005.675
438.341247559,3072.8
438.63269043,3145.475
438.924163818,3152.4
439.215515137,3099.2
439.50692749,2992.35
439.798309326,2997.95
440.089660645,3018.925
440.380981445,2925.35
440.672332764,2915.7
440.963623047,3194.475
441.254882812,3664.025
441.546173096,3869.25
441.837402344,3605.725
442.128631592,3409.675
442.41986084,3384.7
442.711029053,3243.125
443.002197266,3318.175
443.293365479,3506.725
443.584503174,3653.375
443.875610352,3610.0
444.166717529,3353.65
444.457794189,3398.975
444.748840332,3375.4
445.039916992,3334.375
445.330932617,3458.425
445.621948242,3285.2
445.912963867,3061.975
446.203918457,3319.0
446.494812012,3563.375
446.785827637,3346.8
447.076721191,3142.4
447.367584229,3140.3
447.658447266,3107.125
447.949371338,3166.45
448.24017334,3034.1
448.530975342,2960.75
448.821838379,3135.1
449.112579346,3230.3
449.40335083,3135.45
449.694152832,3181.375
449.984863281,3173.15
450.27557373,3109.025
450.56628418,3180.325
450.856933594,3201.6
451.147583008,3017.5
451.438262939,2912.825
451.728881836,3129.55
452.019470215,3245.25
452.310089111,3012.25
452.600646973,3040.075
452.891174316,3107.925
453.181732178,2922.075
453.472229004,2777.35
453.762695312,2903.175
454.053222656,2916.525
454.343658447,2782.4
454.634063721,2715.1
454.924530029,2903.575
455.214935303,3064.5
455.505279541,3119.0
455.795715332,2986.75
456.086029053,2762.225
456.376312256,2744.3
456.666687012,2785.775
456.956939697,2909.55
457.247192383,2901.9
457.537445068,2971.875
457.827728271,3155.4
458.117919922,3103.1
458.408081055,3021.25
458.698303223,3199.025
458.988433838,3130.675
459.278564453,2938.025
459.568725586,3233.925
459.858825684,3356.225
460.148864746,3034.9
460.438995361,2991.15
460.729034424,3041.1
461.019042969,3046.225
461.309082031,3262.2
461.599060059,3136.65
461.889007568,2655.85
462.179016113,2478.425
462.468933105,2728.225
462.75881958,2835.45
463.048736572,2571.325
463.338592529,2848.975
463.628448486,3206.4
463.918365479,2920.55
464.2081604,3092.7
464.497924805,3047.5
464.787780762,3180.275
465.077514648,3507.775
465.367218018,3096.975
465.657012939,3311.575
465.946685791,3736.95
466.236358643,3317.15
466.526092529,2771.575
466.815734863,2758.325
467.105316162,2686.875
467.394927979,2712.925
467.684570312,2572.9
467.974121094,2663.3
468.263671875,2784.775
468.553222656,2563.675
468.842773438,2452.775
469.132232666,2331.55
469.42175293,2362.85
469.711212158,2340.45
470.000640869,2185.85
470.290100098,2255.475
470.579498291,2299.425
470.868835449,2291.8
471.158294678,2263.475
471.447601318,2247.175
471.736907959,2315.475
472.026275635,2383.1
472.315551758,2365.225
472.604797363,2351.525
472.894104004,2493.3
473.183319092,2609.725
473.47253418,2603.825
473.761779785,2597.4
474.05090332,2526.575
474.340087891,2474.675
474.629241943,2394.15
474.918365479,2576.875
475.207427979,2865.825
475.496551514,2899.175
475.785614014,2611.675
476.074645996,2410.325
476.363708496,2496.25
476.652679443,2653.925
476.941650391,2464.275
477.230682373,2304.9
477.519622803,2300.5
477.808502197,2472.15
478.097412109,2755.575
478.386352539,2689.425
478.675201416,2414.05
478.964050293,2303.85
479.25289917,2515.3
479.541717529,2576.45
479.830474854,2396.6
480.11932373,2766.4
480.408050537,2953.7
480.696777344,2551.7
480.985534668,2413.45
481.274200439,2512.25
481.562866211,2775.95
481.851593018,2786.925
482.140197754,2727.45
482.428833008,2576.85
482.717468262,2335.075
483.006011963,2388.8
483.294586182,2501.7
483.5831604,2541.75
483.871673584,2400.775
484.16015625,2551.875
484.448699951,2807.625
484.7371521,2852.825
485.02557373,2856.7
485.314025879,2578.375
485.602416992,3986.025
485.890777588,14143.35
486.179199219,12662.95
486.467559814,3392.35
486.755859375,2457.2
487.044219971,2891.0
487.332519531,3083.35
487.620758057,2631.85
487.908966064,2370.35
488.197265625,2145.425
488.485473633,2054.45
488.773651123,2174.85
489.061859131,2159.35
489.350006104,2120.65
489.638122559,2041.25
489.926300049,2074.425
490.214355469,2015.175
490.502441406,1964.725
490.790527344,1884.525
491.078552246,2110.75
491.366546631,2104.925
491.654602051,1846.55
491.942565918,1926.45
492.230499268,1983.2
492.518493652,1932.125
492.806396484,1969.725
493.094268799,1874.35
493.382202148,1923.4
493.670074463,2058.8
493.957885742,1896.0
494.245727539,1867.6
494.533508301,2063.125
494.821289062,1937.4
495.109100342,1773.65
495.396850586,1724.925
495.684539795,1678.2
495.972290039,1913.65
496.25994873,2283.475
496.547607422,2285.375
496.835296631,2082.325
497.122894287,1749.65
497.410522461,1660.325
497.6980896,1656.25
497.985687256,1628.575
498.273223877,1743.25
498.560760498,1801.825
498.848266602,1843.625
499.135772705,1806.875
499.423217773,1848.85
499.710693359,1973.275
499.998138428,1905.075
500.285522461,1724.3
500.572937012,1630.75
500.860290527,1696.525
501.147644043,1809.25
501.434997559,2058.0
501.722290039,1902.5
502.00958252,1655.9
502.296875,1946.05
502.584106445,1918.65
502.871337891,1750.825
503.158599854,1815.075
503.445770264,1896.925
503.732910156,1864.7
504.020141602,1679.875
504.307220459,1656.525
504.594329834,1697.925
504.881469727,1618.125
505.168518066,1703.55
505.455535889,1767.875
505.742614746,1646.725
506.029632568,1575.2
506.316589355,1775.0
506.603637695,1869.15
506.890563965,1656.125
507.177459717,1480.1
507.464385986,1386.75
507.751312256,1634.5
508.038146973,1727.275
508.325012207,1564.8
508.611877441,1631.4
508.898681641,1639.0
509.185424805,1468.625
509.472259521,1423.175
509.759002686,1513.625
510.045715332,1551.175
510.332458496,1492.5
510.619140625,1562.55
510.905761719,1470.075
511.192504883,1451.65
511.479095459,1505.225
511.765686035,1448.95
512.052307129,1360.65
512.338928223,1305.1
512.625427246,1346.225
512.91204834,1425.375
513.198486328,1403.675
513.484985352,1366.25
513.77142334,1291.4
514.057922363,1334.325
514.344299316,1331.875
514.63079834,1291.1
514.917175293,1271.7
515.203552246,1175.125
515.489868164,1153.375
515.776245117,1276.525
516.0625,1322.075
516.348815918,1229.9
516.635070801,1262.525
516.921325684,1328.975
517.207580566,1255.5
517.493774414,1163.7
517.779968262,1162.575
518.066101074,1214.125
518.352294922,1167.9
518.638366699,1159.825
518.924499512,1251.625
519.210632324,1328.825
519.496643066,1280.725
519.782714844,1182.325
520.068786621,1144.175
520.354736328,1099.15
520.640686035,1058.075
520.926757812,1101.15
521.212646484,1192.775
521.498535156,1195.05
521.784484863,1138.075
522.0703125,1067.975
522.356262207,1088.05
522.642089844,1169.525
522.927856445,1153.4
523.213684082,1152.25
523.499511719,1139.6
523.78527832,1177.625
524.070983887,1238.7
524.356750488,1221.425
524.64239502,1167.8
524.928039551,1160.45
525.213806152,1179.3
525.499389648,1168.825
525.784973145,1204.9
526.070617676,1249.6
526.356140137,1213.45
526.641723633,1224.375
526.927307129,1280.05
527.212768555,1296.075
527.498291016,1258.125
527.783752441,1271.975
528.069213867,1249.925
528.354675293,1269.6
528.640014648,1438.4
528.925476074,1513.85
529.21081543,1424.175
529.496154785,1409.4
529.781555176,1378.275
530.066833496,1395.275
530.352050781,1410.6
530.637390137,1397.575
530.922607422,1387.725
531.207824707,1381.45
531.493041992,1374.225
531.778198242,1440.375
532.063354492,1417.05
532.348571777,1371.6
532.633666992,1389.675
532.918762207,1472.375
533.203857422,1558.95
533.488891602,1584.275
533.773925781,1522.9
534.059020996,1507.925
534.343933105,1534.6
534.628967285,1505.075
534.91394043,1515.925
535.198852539,1526.225
535.483703613,1504.875
535.768676758,1446.75
536.053527832,1453.675
536.338317871,1404.9
536.62322998,1344.25
536.90802002,1312.7
537.192810059,1338.2
537.477539062,1432.5
537.762329102,1464.85
538.047058105,1509.8
538.331726074,1539.3
538.616455078,1518.475
538.901123047,1510.8
539.18572998,1554.225
539.470397949,1549.2
539.755004883,1539.4
540.039550781,1505.175
540.32409668,1460.225
540.608703613,1493.975
540.893188477,1591.975
541.17767334,1621.3
541.462158203,1619.975
541.746643066,1556.1
542.031066895,1608.375
542.315429688,1648.3
542.59979248,1650.375
542.884216309,1625.3
543.168579102,1613.725
543.452941895,1628.0
543.737243652,1678.85
544.021484375,1733.05
544.305725098,1720.85
544.590026855,1697.05
544.874267578,1709.925
545.158447266,1776.6
545.442626953,1688.475
545.726806641,1583.075
546.010925293,1620.5
546.29510498,1649.85
546.579162598,1636.975
546.863220215,1682.125
547.147277832,1765.3
547.431335449,1840.375
547.715332031,1900.65
547.999328613,2010.825
548.283325195,2036.975
548.567260742,1870.425
548.851135254,1846.475
549.135070801,1814.925
549.419006348,1710.275
549.702819824,1816.275
549.986755371,1903.55
550.270507812,1859.675
550.554321289,1919.5
550.83807373,1915.65
551.121826172,1874.225
551.405517578,1888.75
551.689331055,2008.725
551.973022461,2236.15
552.256652832,2311.9
552.540344238,2216.125
552.823974609,2192.4
553.107543945,2170.275
553.391174316,2225.55
553.674743652,2292.8
553.958251953,2293.825
554.241821289,2301.825
554.525268555,2241.4
554.808776855,2230.975
555.092285156,2445.15
555.375671387,2526.5
555.659057617,2521.5
555.942504883,2555.9
556.225891113,2576.925
556.509216309,2533.5
556.792541504,2433.875
557.075866699,2519.45
557.359130859,2564.65
557.64239502,2563.85
557.92565918,2652.175
558.208862305,2636.975
558.49206543,2555.35
558.77532959,2571.3
559.058410645,2635.9
559.341552734,2609.775
559.624694824,2657.025
559.907775879,2736.55
560.190856934,2864.1
560.473937988,2859.375
560.756896973,2905.3
561.039978027,2934.85
561.322937012,2887.375
561.605895996,2881.75
561.88885498,2838.975
562.171813965,2840.85
562.454650879,2835.175
562.737548828,2872.0
563.020446777,2944.275
563.303283691,2973.525
563.58605957,3002.1
563.868896484,3023.025
564.151672363,3079.475
564.434387207,3099.575
564.717163086,3059.7
564.99987793,3118.175
565.282531738,3184.225
565.565185547,3104.575
565.847839355,3120.175
566.130432129,3244.95
566.413085938,3216.775
566.695678711,3225.9
566.978149414,3352.5
567.260681152,3533.3
567.543273926,3588.7
567.825744629,3480.7
568.108154297,3517.175
568.390686035,3655.875
568.673095703,3755.075
568.955505371,3808.575
569.237854004,3856.875
569.520202637,4137.1
569.802490234,4355.75
570.084838867,4322.5
570.367126465,4152.35
570.649414062,4185.225
570.93170166,4540.975
571.213928223,4618.05
571.496154785,4362.5
571.778381348,4601.875
572.06048584,4869.1
572.342590332,4397.775
572.624755859,4014.15
572.906860352,4083.475
573.188903809,4823.85
573.470947266,5048.075
573.752990723,4823.2
574.03503418,4905.95
574.317016602,5328.375
574.598937988,5106.225
574.88092041,4970.275
575.162841797,5161.8
575.444763184,4771.4
575.726623535,4498.675
576.008483887,4548.425
576.290344238,4965.525
576.572143555,5174.85
576.853881836,5249.625
577.135681152,5128.525
577.417419434,5209.55
577.699157715,6097.925
577.980895996,6276.4
578.262573242,5593.05
578.544128418,5088.925
578.825866699,5024.475
579.107421875,4710.075
579.388977051,4897.875
579.670593262,5300.025
579.952148438,5129.825
580.233642578,5215.3
580.515197754,5333.85
580.796691895,5018.525
581.078125,5214.725
581.359619141,6780.725
581.640991211,6901.025
581.922363281,5933.35
582.203796387,6004.275
582.485107422,5627.125
582.766418457,5220.825
583.047790527,5043.25
583.329040527,4933.7
583.610290527,4793.1
583.891540527,4911.95
584.172790527,5240.275
584.453918457,5235.45
584.735107422,5305.35
585.016235352,5790.375
585.297363281,5740.525
585.578552246,5522.6
585.859619141,5469.15
586.140625,5220.8
586.421630859,5082.525
586.702697754,5118.925
586.983642578,5362.65
587.264648438,5540.825
587.545654297,5469.625
587.826477051,5410.9
588.107421875,5220.325
588.388305664,5243.25
588.669189453,5338.6
588.950012207,5190.225
589.230834961,5095.775
589.511657715,5169.625
589.792358398,5269.075
590.073120117,5274.65
590.353881836,5251.325
590.63458252,5271.25
590.915283203,5233.85
591.195922852,5222.05
591.4765625,5239.475
591.757202148,5311.55
592.037780762,5282.875
592.31829834,5316.075
592.598937988,5531.125
592.879394531,5705.025
593.159912109,5599.6
593.440429688,5543.9
593.720825195,5503.3
594.001281738,5468.75
594.281677246,5393.5
594.562072754,5393.825
594.842407227,5513.5
595.122802734,5561.45
595.403137207,5543.675
595.683410645,5496.675
595.963623047,5488.55
596.243896484,5442.075
596.524169922,5443.3
596.804382324,5431.825
597.084533691,5475.05
597.364746094,5527.575
597.644836426,5541.325
597.924987793,5536.4
598.205078125,5496.325
598.485107422,5539.3
598.765197754,5635.525
599.045227051,5703.65
599.325195312,5590.075
599.605224609,5554.175
599.885192871,5587.875
600.165100098,5628.4
600.445007324,5588.45
600.724914551,5599.625
601.004760742,5580.25
601.284667969,5644.3
601.56451416,5570.85
601.844238281,5585.875
602.124084473,5575.5
602.403808594,5595.4
602.683532715,5622.425
602.963256836,5604.525
603.242919922,5645.375
603.522583008,5701.775
603.802246094,5647.2
604.081848145,5630.7
604.36138916,5587.55
604.641052246,5624.225
604.920532227,5618.425
605.200073242,5643.675
605.479614258,5680.375
605.759094238,5701.35
606.038574219,5698.425
606.317932129,5630.875
606.597412109,5642.725
606.87677002,5629.55
607.15612793,5676.2
607.435546875,5673.3
607.714782715,5681.725
607.99407959,5636.925
608.273376465,5640.75
608.552612305,5669.9
608.831848145,5685.4
609.111083984,5651.725
609.390258789,5625.375
609.669433594,5637.2
609.948608398,5699.025
610.227722168,5674.375
610.506713867,5614.525
610.785888672,5636.175
611.064880371,5630.475
611.34387207,5639.275
611.622924805,5640.9
611.901916504,5657.175
612.180847168,5592.3
612.459777832,5602.65
612.738647461,5612.325
613.01751709,5580.925
613.296447754,5518.775
613.575317383,5482.825
613.854064941,5434.875
614.132873535,5351.525
614.411621094,5288.7
614.690368652,5245.125
614.969177246,5194.925
615.247802734,5093.675
615.526489258,5084.975
615.805175781,4983.65
616.08380127,4854.8
616.362365723,4779.2
616.640991211,4728.275
616.919555664,4688.5
617.198059082,4808.25
617.4765625,5094.55
617.755126953,5205.725
618.033569336,5249.95
618.311950684,5250.275
618.590454102,5237.4
618.868774414,5207.75
619.147155762,5239.075
619.425598145,5212.175
619.703857422,5232.95
619.982177734,5238.5
620.260498047,5207.95
620.538757324,5202.875
620.816955566,5171.05
621.095214844,5146.15
621.373413086,5142.675
621.651550293,5224.0
621.929748535,5231.175
622.207824707,5223.975
622.485900879,5238.175
622.764038086,5219.475
623.042053223,5278.7
623.320007324,5293.7
623.598083496,5285.175
623.876037598,5261.375
624.153991699,5289.75
624.432006836,5307.625
624.709838867,5321.575
624.987731934,5297.45
625.265563965,5293.7
625.543395996,5330.525
625.821228027,5370.0
626.098999023,5344.325
626.376831055,5399.975
626.654541016,5411.725
626.932250977,5464.85
627.209960938,5525.75
627.487670898,5511.4
627.765319824,5550.4
628.04296875,5542.425
628.320495605,5565.15
628.598083496,5553.225
628.875671387,5591.85
629.153259277,5623.725
629.430725098,5676.925
629.708251953,5650.65
629.985656738,5677.075
630.263122559,5719.5
630.540588379,5729.8
630.817932129,5782.7
631.095275879,5778.4
631.372680664,5832.725
631.649963379,5874.65
631.927246094,5946.25
632.204589844,5975.975
632.481811523,6018.65
632.759033203,6098.525
633.036254883,6116.725
633.313415527,6212.575
633.590576172,6258.075
633.867736816,6381.95
634.144836426,6432.425
634.421875,6471.8
634.698913574,6525.125
634.976013184,6582.525
635.252990723,6659.525
635.529968262,6687.95
635.807006836,6770.7
636.08392334,6737.15
636.360839844,6644.375
636.637756348,6555.8
636.914611816,6549.975
637.191467285,6505.3
637.468261719,6588.775
637.745056152,6561.25
638.021789551,6586.0
638.298583984,6573.75
638.575317383,6630.75
638.851989746,6657.925
639.12878418,6636.95
639.405395508,6623.275
639.682006836,6668.55
639.958618164,6676.825
640.235229492,6651.95
640.511779785,6690.875
640.788330078,6683.175
641.064880371,6662.55
641.341308594,6650.425
641.617797852,6666.175
641.894226074,6662.075
642.170654297,6685.725
642.44708252,6690.425
642.723388672,6671.75
642.999755859,6662.325
643.276123047,6681.675
643.552429199,6644.075
643.828674316,6656.975
644.104919434,6640.05
644.381164551,6644.325
644.657348633,6644.15
644.933532715,6611.975
645.209716797,6636.0
645.485839844,6647.925
645.761901855,6639.925
646.038024902,6605.975
646.314086914,6656.925
646.590087891,6617.725
646.866149902,6653.35
647.142150879,6610.95
647.41809082,6591.4
647.694030762,6606.05
647.969970703,6595.875
648.245788574,6619.85
648.521728516,6629.15
648.797546387,6596.975
649.073303223,6617.95
649.349182129,6605.9
649.624938965,6619.825
649.900634766,6609.2
650.176391602,6583.175
650.452087402,6587.65
650.727783203,6583.825
651.003479004,6592.225
651.279052734,6579.425
651.554626465,6577.275
651.83026123,6544.55
652.105773926,6558.925
652.381286621,6542.1
652.656860352,6566.85
652.932312012,6566.875
653.207763672,6581.525
653.483215332,6608.375
653.758605957,6580.4
654.033935547,6609.925
654.309326172,6575.35
654.584716797,6617.0
654.859985352,6606.05
655.135253906,6645.3
655.410583496,6661.15
655.685791016,7658.85
655.9609375,11923.05
656.236206055,11680.125
656.511291504,7726.625
656.786437988,6787.525
657.061645508,6692.1
657.336669922,6675.825
657.611694336,6741.1
657.886779785,6754.775
658.161804199,6756.5
658.436828613,6732.325
658.711791992,6747.5
658.986755371,6744.8
659.261657715,6777.525
659.536621094,6793.775
659.811401367,6800.975
660.086303711,6814.6
660.36114502,6805.975
660.635864258,6830.0
660.910644531,6864.075
661.185424805,6813.45
661.460205078,6884.55
661.734863281,6868.2
662.009521484,6861.8
662.284179688,6898.875
662.558776855,6922.325
662.833435059,6973.025
663.108032227,6951.275
663.382568359,6938.25
663.657043457,6981.975
663.93157959,7016.425
664.206054688,7011.625
664.48046875,7053.775
664.755004883,7050.125
665.02935791,7066.35
665.303710938,7105.35
665.578125,7116.575
665.852416992,7104.825
666.126708984,7120.775
666.401062012,7129.5
666.675292969,7181.175
666.949462891,7162.375
667.223754883,7156.775
667.497924805,7192.25
667.772094727,7230.975
668.046264648,7213.95
668.3203125,7273.825
668.594421387,7271.125
668.868469238,7290.325
669.14251709,7316.85
669.416503906,7333.475
669.690551758,7342.8
669.964477539,7359.65
670.23840332,7384.775
670.512329102,7370.7
670.786254883,7319.15
671.060058594,7411.775
671.333984375,7434.875
671.607788086,7452.4
671.881530762,7434.925
672.155334473,7504.525
672.429077148,7504.625
672.702758789,7512.45
672.97644043,7486.8
673.25012207,7523.575
673.523742676,7519.125
673.797302246,7537.2
674.070922852,7579.925
674.344482422,7584.475
674.618041992,7573.75
674.891601562,7582.725
675.165100098,7614.825
675.438476562,7596.2
675.711975098,7613.175
675.985412598,7601.85
676.258789062,7616.8
676.532165527,7637.75
676.805480957,7630.95
677.078796387,7663.85
677.352111816,7692.175
677.625366211,7681.7
677.898620605,7689.5
678.171875,7755.1
678.445007324,7708.825
678.718200684,7763.975
678.991394043,7774.625
679.264404297,7753.05
679.537536621,7793.075
679.81060791,7806.5
680.083679199,7804.35
680.356689453,7802.6
680.629699707,7824.0
680.902648926,7808.4
681.175598145,7863.6
681.448547363,7893.15
681.721435547,7866.2
681.99420166,7879.875
682.267150879,7863.65
682.539916992,7944.675
682.812744141,7911.1
683.085510254,7885.9
683.358215332,7905.225
683.63092041,7924.95
683.903625488,7926.95
684.176330566,7904.525
684.448913574,7890.625
684.721557617,7889.325
684.99420166,7959.625
685.266662598,7934.325
685.539245605,7945.5
685.811767578,7995.675
686.084289551,8011.75
686.356689453,8029.625
686.629150391,8080.85
686.901550293,8086.85
687.17401123,8091.6
687.446350098,8131.8
687.718688965,8116.55
687.990966797,8195.375
688.263305664,8177.35
688.535522461,8165.675
688.807739258,8155.825
689.079956055,8193.65
689.352172852,8248.3
689.624328613,8240.0
689.896484375,8271.95
690.168518066,8275.7
690.440612793,8321.875
690.71270752,8308.725
690.984741211,8299.4
691.256713867,8354.1
691.528747559,8327.225
691.800720215,8333.75
692.072631836,8368.225
692.344543457,8403.075
692.616394043,8416.925
692.888244629,8435.0
693.160095215,8480.875
693.431945801,8489.05
693.703674316,8467.15
693.975463867,8444.275
694.247131348,8531.25
694.518859863,8534.925
694.790588379,8534.6
695.062255859,8559.6
695.33380127,8525.525
695.60546875,8542.125
695.87701416,8576.6
696.148498535,8595.5
696.42010498,8638.925
696.691589355,8659.075
696.96307373,8659.0
697.234558105,8713.375
697.50592041,8687.05
697.777282715,8721.1
698.048706055,8728.175
698.320068359,8742.9
698.591308594,8718.325
698.862670898,8734.875
699.133972168,8783.45
699.405151367,8753.525
699.676391602,8800.7
699.947570801,8800.45
700.21875,8811.8
700.489868164,8794.925
700.761047363,8814.775
701.032104492,8863.75
701.303100586,8826.4
701.57421875,8906.925
701.845214844,8899.0
702.116149902,8907.925
702.387207031,8900.3
702.65814209,8913.325
702.928955078,8945.5
703.199951172,8940.55
703.47076416,8910.925
703.741577148,8911.45
704.012451172,8977.6
704.28314209,8970.1
704.553955078,8948.325
704.824707031,9021.6
705.095397949,9040.75
705.366027832,9060.25
705.63671875,9050.175
705.907348633,9043.8
706.17791748,9051.925
706.448486328,9075.475
706.719055176,9127.375
706.989562988,9088.4
707.260131836,9120.275
707.530517578,9155.35
707.800964355,9127.8
708.071411133,9088.225
708.341796875,9089.525
708.612182617,9075.225
708.882446289,9088.975
709.152893066,9121.7
709.423156738,9140.95
709.693359375,9109.15
709.963623047,9147.2
710.233825684,9183.425
710.503967285,9111.225
710.774169922,9143.85
711.044311523,9134.0
711.31439209,9134.225
711.584533691,9169.825
711.854553223,9192.3
712.124572754,9196.675
712.39465332,9133.45
712.664611816,9213.775
712.934509277,9269.975
713.204467773,9219.85
713.474365234,9254.325
713.74420166,9236.75
714.014099121,9282.45
714.283874512,9257.775
714.553710938,9275.425
714.823486328,9278.85
715.093200684,9251.925
715.362915039,9271.325
715.632629395,9275.325
715.902282715,9241.45
716.171875,9227.475
716.441589355,9250.325
716.711181641,9233.65
716.980712891,9253.175
717.250244141,9203.15
717.519775391,9261.425
717.78918457,9242.0
718.058654785,9314.95
718.328125,9333.475
718.597473145,9316.425
718.866882324,9312.8
719.136230469,9305.85
719.405578613,9357.3
719.674865723,9369.975
719.944152832,9333.25
720.213439941,9287.2
720.48260498,9352.275
720.75177002,9343.15
721.020996094,9357.2
721.290100098,9356.7
721.559204102,9323.975
721.828308105,9368.425
722.097351074,9349.1
722.366455078,9359.0
722.635437012,9342.95
722.904418945,9303.3
723.173400879,9336.575
723.442321777,9361.825
723.711181641,9336.025
723.980102539,9384.1
724.248962402,9349.15
724.51776123,9351.925
724.786560059,9403.05
725.055358887,9385.875
725.324035645,9330.775
725.592834473,9356.225
725.86151123,9340.3
726.130187988,9334.05
726.398803711,9295.35
726.667419434,9326.45
726.935974121,9298.55
727.204528809,9261.425
727.473083496,9306.525
727.741638184,9251.375
728.010070801,9227.6
728.278564453,9265.125
728.546936035,9253.525
728.815368652,9181.9
729.08380127,9099.875
729.352111816,9090.125
729.620361328,9014.075
729.88873291,9033.425
730.156982422,9090.525
730.425231934,9093.3
730.693481445,9110.85
730.961669922,9166.175
731.229797363,9204.2
731.49798584,9215.025
731.766113281,9249.075
732.034118652,9328.175
732.302246094,9395.775
732.570251465,9450.85
732.838256836,9461.5
733.106262207,9553.725
733.374145508,9585.225
733.642089844,9622.675
733.909973145,9669.975
734.177856445,9751.2
734.445678711,9868.9
734.713562012,9964.0
734.981323242,9942.9
735.249084473,9987.15
735.516845703,10192.425
735.784545898,10225.05
736.052185059,10266.9
736.319885254,10393.225
736.587524414,10448.875
736.855102539,10484.3
737.122619629,10637.8
737.390197754,10652.175
737.657714844,10787.25
737.925170898,10838.575
738.192749023,10977.05
738.460144043,11015.225
738.727539062,11076.375
738.994995117,11183.8
739.262329102,11249.575
739.529663086,11354.725
739.79699707,11401.4
740.06427002,11455.875
740.331481934,11545.375
740.598754883,11616.325
740.865905762,11621.55
741.133056641,11799.75
741.40032959,11805.825
741.667358398,11905.15
741.934448242,11950.25
742.201599121,11969.6
742.468566895,12064.575
742.735534668,12115.8
743.002563477,12156.975
743.26953125,12131.45
743.536437988,12243.2
743.803405762,12361.925
744.0703125,12269.275
744.337097168,12379.925
744.604003906,12322.7
744.870727539,12396.95
745.137512207,12447.05
745.40423584,12446.15
745.670959473,12411.45
745.93762207,12446.05
746.204284668,12484.15
746.470947266,12485.325
746.737548828,12481.075
747.004089355,12516.125
747.270751953,12529.8
747.53717041,12558.25
747.803710938,12462.95
748.070251465,12469.675
748.336608887,12469.125
748.603027344,12433.85
748.869445801,12452.425
749.135803223,12456.625
749.402099609,12466.0
749.668457031,12479.0
749.934753418,12453.425
750.20098877,12386.775
750.467224121,12448.925
750.733459473,12433.725
750.999572754,12385.725
751.26574707,12290.0
751.531860352,12321.85
751.797912598,12291.8
752.064025879,12271.3
752.330078125,12261.875
752.596069336,12245.075
752.862060547,12163.125
753.127990723,12171.375
753.393920898,12151.425
753.659912109,12123.375
753.925720215,12163.675
754.19152832,12097.175
754.457397461,12058.15
754.723144531,12024.05
754.988952637,11974.8
755.254699707,11987.85
755.520385742,12012.625
755.786071777,12036.4
756.051696777,11980.475
756.317382812,11929.025
756.582946777,11881.15
756.848510742,11930.2
757.114074707,11843.375
757.379577637,11846.125
757.645080566,11924.075
757.910583496,11885.8
758.175964355,11795.425
758.441345215,11760.125
758.706848145,11623.425
758.972106934,11618.0
759.237426758,11633.8
759.502807617,11663.95
759.768005371,11665.4
760.03326416,11605.15
760.298522949,11522.225
760.563659668,11562.025
760.828857422,11532.825
761.093994141,11575.35
761.359130859,11530.125
761.624206543,11506.25
761.889282227,11425.125
762.15423584,11429.25
762.419250488,11447.65
762.684265137,11362.825
762.949157715,11331.75
763.214050293,11309.125
763.479003906,11288.825
763.743835449,11298.575
764.008666992,11209.9
764.2734375,11204.0
764.538208008,11197.225
764.802978516,11264.875
765.067687988,11231.625
765.332397461,11212.025
765.597045898,11187.75
765.861694336,11145.95
766.126342773,11155.975
766.390930176,11105.575
766.655395508,11037.575
766.920043945,11025.675
767.184509277,11030.55
767.448974609,11014.525
767.713439941,10991.825
767.977783203,10937.975
768.2421875,10975.65
768.506591797,10902.35
768.770874023,11011.7
769.03515625,10960.425
769.299499512,10932.65
769.563720703,10934.125
769.827941895,10851.025
770.092163086,10867.775
770.356323242,10796.5
770.620483398,10845.525
770.88458252,10860.775
771.148681641,10839.7
771.412719727,10834.625
771.676757812,10833.125
771.940734863,10759.05
772.204711914,10770.775
772.468688965,10720.025
772.73260498,10717.25
772.996459961,10732.675
773.260314941,9573.9
773.524169922,1220.55
773.787963867,153.525
774.051696777,124.325
774.315551758,120.575
774.579223633,121.425
774.842895508,119.175
775.106567383,122.25
775.370239258,118.275
775.633789062,123.3
775.897399902,125.975
776.160949707,116.925
776.424499512,121.4
776.687988281,121.15
776.951477051,125.3
777.214904785,119.05
777.47833252,121.5
