191.299911499,99.175
191.603515625,100.7
191.907119751,95.675
192.210693359,104.65
192.514251709,96.9
192.817810059,102.9
193.121368408,102.35
193.42489624,108.575
193.728408813,98.675
194.031936646,97.325
194.33543396,91.325
194.638916016,111.925
194.94241333,96.95
195.245880127,97.45
195.549331665,95.375
195.852767944,99.85
196.156204224,186.4
196.459625244,181.975
196.763015747,185.95
197.066436768,190.125
197.369812012,182.825
197.673187256,184.1
197.9765625,178.8
198.279922485,183.775
198.583251953,177.525
198.886581421,184.975
199.18989563,191.2
199.493209839,187.475
199.79649353,178.9
200.09979248,189.075
200.403076172,182.675
200.706314087,187.225
201.009567261,180.4
201.312820435,183.65
201.616027832,177.025
201.919235229,172.425
202.222457886,179.95
202.525634766,181.15
202.828826904,173.4
203.132003784,174.05
203.435150146,175.25
203.738296509,176.275
204.041412354,174.3
204.344558716,174.15
204.647659302,181.925
204.950759888,180.95
205.253845215,175.725
205.556930542,173.975
205.859985352,179.175
206.163024902,174.4
206.466079712,181.225
206.769104004,186.225
207.072113037,179.6
207.375137329,174.325
207.678131104,180.125
207.981109619,180.975
208.284088135,178.9
208.587036133,183.175
208.889984131,183.35
209.19291687,186.625
209.495849609,184.425
209.798751831,185.0
210.101654053,186.7
210.404556274,187.825
210.707427979,182.6
211.010269165,191.85
211.31312561,189.25
211.615982056,187.9
211.918807983,191.025
212.221618652,190.9
212.524429321,184.725
212.827224731,193.725
213.130004883,191.35
213.432769775,191.7
213.735534668,192.05
214.038269043,198.1
214.341003418,196.55
214.643737793,199.725
214.946456909,201.725
215.249145508,205.5
215.551834106,204.725
215.854507446,203.675
216.157165527,202.25
216.45980835,206.05
216.762451172,211.375
217.065078735,212.75
217.36769104,211.4
217.670303345,216.0
217.972885132,219.575
218.275466919,225.3
218.578048706,217.875
218.880599976,228.35
219.183120728,226.825
219.485656738,232.1
219.788192749,249.0
220.090682983,263.725
220.393188477,292.575
220.695663452,329.0
220.998138428,357.45
221.300582886,409.225
221.603042603,448.575
221.905487061,503.3
222.207901001,568.45
222.510299683,643.7
222.812728882,731.7
223.115097046,824.825
223.41746521,908.9
223.719848633,1010.25
224.022171021,1108.85
224.324508667,1215.575
224.626846313,1347.125
224.929168701,1458.0
225.231460571,1585.825
225.533737183,1686.725
225.836013794,1820.225
226.138290405,1939.175
226.440536499,2037.65
226.742767334,2165.55
227.044998169,2249.475
227.347213745,2369.8
227.649429321,2461.875
227.951629639,2543.5
228.253799438,2638.875
228.555953979,2717.85
228.858123779,2793.525
229.160263062,2873.325
229.462371826,2924.9
229.764511108,3016.175
230.066619873,3059.7
230.36869812,3118.35
230.670776367,3191.875
230.972854614,3268.475
231.274902344,3321.125
231.576950073,3384.35
231.878967285,3445.3
232.180999756,3517.2
232.48298645,3595.075
232.784988403,3659.35
233.086975098,3720.725
233.388946533,3773.725
233.69090271,3843.8
233.992858887,3903.65
234.294769287,3933.575
234.596694946,3973.225
234.898605347,4021.925
235.200500488,4045.325
235.502380371,4071.225
235.804244995,4108.7
236.106109619,4121.2
236.407958984,4118.2
236.709777832,4146.975
237.011581421,4142.9
237.313400269,4125.45
237.615203857,4125.275
237.916976929,4137.975
238.21875,4113.475
238.520507812,4115.925
238.822250366,4101.575
239.12399292,4066.375
239.425704956,4067.25
239.727401733,4020.925
240.02911377,4023.5
240.330780029,3971.55
240.632446289,3932.875
240.93409729,3926.4
241.23576355,3919.075
241.537384033,3887.975
241.839004517,3845.95
242.140594482,3821.0
242.442199707,3802.125
242.743774414,3774.525
243.045333862,3740.175
243.346923828,3717.275
243.648452759,3649.55
243.949966431,3618.25
244.251495361,3587.5
244.552993774,3546.475
244.854492188,3482.475
245.155975342,3423.05
245.457443237,3391.15
245.758880615,3328.2
246.060333252,3282.525
246.36177063,3203.4
246.66317749,3160.575
246.964569092,3081.05
247.265945435,3040.0
247.567337036,2982.7
247.86869812,2951.525
248.170059204,2900.3
248.471389771,2858.25
248.772705078,2815.425
249.074035645,2801.0
249.375335693,2775.275
249.676620483,2746.525
249.977890015,2712.85
250.279159546,2707.775
250.58039856,2690.275
250.881637573,2649.375
251.182876587,2641.675
251.484069824,2634.525
251.785263062,2631.9
252.086456299,2638.175
252.387619019,2591.125
252.688781738,2591.825
252.989929199,2597.85
253.291061401,2602.225
253.592178345,2591.525
253.893280029,2593.55
254.194366455,2599.925
254.49546814,2585.925
254.796524048,2556.65
255.097579956,2567.55
255.398620605,2539.8
255.699645996,2575.3
256.000640869,2537.075
256.30166626,2548.4
256.602661133,2545.3
256.903656006,2514.8
257.204589844,2525.7
257.505523682,2507.425
257.80645752,2515.35
258.107391357,2503.65
258.408294678,2488.025
258.709228516,2489.9
259.010070801,2470.8
259.310943604,2451.325
259.611846924,2440.575
259.912658691,2438.1
260.213500977,2426.75
260.514343262,2402.25
260.815124512,2399.95
261.115936279,2406.2
261.416717529,2413.65
261.717468262,2400.675
262.018218994,2417.775
262.318969727,2425.45
262.619689941,2444.875
262.920410156,2503.6
263.221130371,2535.4
263.521789551,2568.975
263.822479248,2621.15
264.123138428,2656.875
264.42376709,2712.4
264.72442627,2729.85
265.025054932,2748.2
265.325622559,2806.15
265.626251221,2825.0
265.926818848,2849.6
266.227386475,2856.075
266.527954102,2896.0
266.828460693,2961.425
267.12902832,2914.175
267.429534912,2955.55
267.730010986,2975.9
268.030517578,2987.2
268.330993652,3016.925
268.631439209,3043.475
268.931915283,3068.45
269.232299805,3102.5
269.532745361,3114.675
269.8331604,3142.45
270.133544922,3163.3
270.433929443,3206.15
270.734313965,3253.375
271.034637451,3303.525
271.334991455,3315.95
271.635314941,3405.175
271.935638428,3462.5
272.235931396,3530.45
272.536254883,3598.6
272.836486816,3686.825
273.136749268,3789.1
273.437011719,3888.525
273.737213135,4002.45
274.037445068,4104.2
274.337677002,4218.825
274.6378479,4314.975
274.938049316,4462.875
275.238220215,4584.225
275.538360596,4713.85
275.838500977,4797.875
276.138641357,4969.35
276.438751221,5052.1
276.738830566,5193.1
277.03894043,5279.575
277.338989258,5436.675
277.639038086,5542.025
277.939056396,5629.55
278.239105225,5736.7
278.539093018,5858.925
278.839141846,5941.4
279.139129639,6026.725
279.439086914,6165.225
279.739044189,6251.6
280.039001465,6372.375
280.338928223,6428.425
280.63885498,6531.7
280.938781738,6582.65
281.238647461,6652.975
281.538513184,6703.425
281.838409424,6816.9
282.138244629,6877.425
282.438079834,6907.7
282.737945557,6980.375
283.037719727,7001.1
283.337524414,7077.125
283.637298584,7144.875
283.937072754,7170.725
284.236816406,7206.175
284.536560059,7222.875
284.836303711,7295.125
285.136016846,7360.0
285.43572998,7390.45
285.735412598,7377.175
286.035064697,7428.6
286.334747314,7472.55
286.634368896,7484.65
286.933990479,7442.1
287.233642578,7431.65
287.533203125,7456.725
287.832824707,7406.9
288.132385254,7317.675
288.431945801,7217.0
288.731506348,7114.75
289.031036377,6989.875
289.330566406,6882.475
289.630065918,6878.125
289.92956543,6842.725
290.229034424,6945.85
290.528503418,7111.125
290.827941895,7289.5
291.127380371,7424.25
291.42678833,7541.9
291.726226807,7710.225
292.025604248,7715.875
292.324981689,7752.85
292.624359131,7786.45
292.923736572,7787.05
293.223052979,7841.525
293.522369385,7823.25
293.821685791,7771.1
294.12097168,7760.175
294.420257568,7749.3
294.719543457,7727.025
295.018768311,7722.775
295.318023682,7670.45
295.617248535,7607.15
295.916442871,7558.875
296.215667725,7488.775
296.514862061,7354.45
296.813995361,7144.475
297.11315918,6979.35
297.412322998,6857.425
297.711425781,6837.55
298.010559082,6985.625
298.309631348,7188.325
298.608734131,7353.625
298.907806396,7568.85
299.206848145,7708.725
299.505889893,7793.975
299.804901123,7907.325
300.103912354,7948.65
300.402954102,8028.6
300.701904297,8075.3
301.00088501,8161.1
301.299835205,8242.675
301.5987854,8260.55
301.897735596,8337.25
302.196624756,8393.125
302.495513916,8463.8
302.794403076,8481.175
303.093292236,8513.25
303.392120361,8613.75
303.690979004,8685.525
303.989837646,8730.975
304.288604736,8780.625
304.587402344,8791.875
304.886199951,8838.5
305.184967041,8887.425
305.483734131,8924.125
305.782501221,8936.3
306.081176758,8976.95
306.37991333,8988.225
306.678619385,8984.825
306.977294922,9027.575
307.275970459,9029.175
307.574645996,9049.9
307.873260498,8998.525
308.171875,9045.0
308.470489502,9046.2
308.769104004,8968.2
309.067687988,8971.25
309.366241455,8970.325
309.664794922,8911.125
309.963348389,8933.8
310.261871338,8944.65
310.560394287,8966.575
310.858856201,8938.575
311.157348633,8993.3
311.455810547,8980.575
311.754272461,9002.85
312.052703857,9092.55
312.351135254,9136.45
312.649536133,9126.125
312.947937012,9099.85
313.246307373,9111.525
313.544647217,9147.125
313.843017578,9072.9
314.141387939,9072.375
314.439697266,9079.0
314.738006592,8987.125
315.036315918,8933.7
315.334564209,8848.625
315.6328125,8823.85
315.931091309,8747.325
316.229309082,8614.175
316.527526855,8523.35
316.825744629,8465.575
317.123901367,8385.35
317.422088623,8316.675
317.720245361,8306.0
318.0184021,8334.4
318.316497803,8354.975
318.614654541,8419.4
318.912750244,8498.225
319.21081543,8496.425
319.50894165,8528.75
319.806945801,8532.925
320.104980469,8522.8
320.403045654,8529.9
320.701049805,8495.95
320.999023438,8484.375
321.297027588,8411.375
321.595001221,8411.175
321.892913818,8361.625
322.190887451,8289.475
322.488830566,8241.225
322.786712646,8182.4
323.084625244,8109.4
323.382507324,8069.25
323.680358887,8006.175
323.978210449,7938.125
324.276062012,7863.575
324.573852539,7831.45
324.871643066,7774.6
325.169464111,7713.85
325.467224121,7657.325
325.764984131,7575.55
326.062744141,7509.15
326.360473633,7444.9
326.658203125,7371.525
326.955871582,7299.8
327.253570557,7229.425
327.551239014,7189.225
327.848907471,7115.975
328.146514893,7035.325
328.444152832,6983.0
328.741790771,6946.5
329.039367676,6870.4
329.336914062,6802.725
329.634521484,6749.025
329.932067871,6707.525
330.229553223,6622.175
330.527160645,6562.975
330.824615479,6530.275
331.12210083,6456.525
331.419586182,6336.325
331.717041016,6276.475
332.014465332,6201.475
332.311920166,6174.6
332.609313965,6136.05
332.906707764,6100.375
333.204101562,6068.575
333.501495361,6104.8
333.798828125,6137.525
334.096160889,6171.05
334.39352417,6233.325
334.690795898,6277.55
334.988098145,6345.025
335.285400391,6390.725
335.582641602,6383.975
335.879882812,6424.675
336.177124023,6438.525
336.474334717,6521.375
336.77154541,6495.35
337.068725586,6537.15
337.365905762,6519.1
337.66305542,6545.6
337.960205078,6581.75
338.257324219,6586.2
338.554443359,6586.25
338.8515625,6605.525
339.148590088,6594.425
339.445648193,6610.9
339.742736816,6580.075
340.039764404,6584.9
340.336761475,6549.25
340.63381958,6508.525
340.930755615,6430.675
341.227722168,6362.275
341.524688721,6288.025
341.821624756,6249.1
342.118560791,6284.825
342.415496826,6348.45
342.712402344,6482.15
343.009246826,6629.65
343.306121826,6743.975
343.602966309,6790.375
343.899810791,6879.725
344.196624756,6964.15
344.493438721,7011.3
344.79019165,7052.9
345.086975098,7082.0
345.383758545,7130.025
345.680480957,7104.875
345.977203369,7136.9
346.273956299,7168.7
346.570617676,7166.375
346.86730957,7186.4
347.163970947,7150.2
347.460601807,7167.525
347.757232666,7193.075
348.053894043,7192.05
348.350463867,7112.775
348.647064209,7101.8
348.943634033,7092.525
349.24017334,7090.35
349.536712646,7024.375
349.833251953,7042.425
350.129760742,7010.525
350.426208496,7006.475
350.722747803,6971.725
351.019195557,6946.075
351.315612793,6904.275
351.612060547,6862.8
351.908508301,6805.775
352.204864502,6757.075
352.501281738,6710.0
352.797637939,6638.475
353.093963623,6542.2
353.390319824,6484.9
353.686645508,6391.5
353.982940674,6313.4
354.27923584,6310.375
354.575531006,6206.45
354.871765137,6194.85
355.167999268,6197.575
355.464233398,6175.975
355.760437012,6190.575
356.056640625,6199.825
356.352813721,6205.15
356.648956299,6188.625
356.945129395,6195.85
357.241271973,6191.4
357.537384033,6222.55
357.833496094,6142.75
358.129577637,6120.125
358.425628662,6106.9
358.721679688,6071.2
359.017730713,6045.0
359.313720703,5988.35
359.609710693,5960.425
359.905761719,5903.75
360.201721191,5855.675
360.497650146,5795.25
360.793609619,5769.875
361.089538574,5684.0
361.385437012,5617.45
361.681365967,5571.45
361.977233887,5499.075
362.273071289,5450.975
362.568908691,5333.5
362.864746094,5209.025
363.160552979,5086.15
363.456359863,4919.125
363.752166748,4782.95
364.047912598,4700.475
364.343658447,4663.15
364.639434814,4674.875
364.935119629,4713.5
365.230834961,4771.55
365.526550293,4795.525
365.822174072,4790.75
366.117858887,4798.425
366.413482666,4850.05
366.709075928,4867.525
367.004730225,4779.725
367.300292969,4756.075
367.595855713,4797.175
367.891448975,4702.05
368.186981201,4584.625
368.482513428,4540.075
368.778015137,4524.125
369.073547363,4485.95
369.36895752,4478.7
369.664428711,4399.775
369.95993042,4270.375
370.255310059,4216.275
370.550720215,4219.425
370.846160889,4158.425
371.14151001,4120.775
371.436859131,4094.225
371.73223877,4067.45
372.027557373,4026.05
372.322875977,3976.0
372.618164062,3930.075
372.913482666,3907.975
373.208709717,3886.525
373.503967285,3830.15
373.799194336,3779.425
374.094421387,3776.2
374.389648438,3740.275
374.684844971,3731.25
374.979980469,3768.25
375.275146484,3764.725
375.570281982,3797.525
375.865386963,3796.825
376.160522461,3741.35
376.455596924,3746.825
376.750640869,3830.675
377.045715332,3834.8
377.340759277,3854.35
377.635772705,3903.95
377.93081665,3948.35
378.225769043,3997.375
378.520751953,4044.375
378.815734863,4006.625
379.110656738,4163.125
379.405548096,4328.225
379.700500488,4169.675
379.995391846,3969.275
380.290252686,4016.95
380.585083008,4119.725
380.879974365,4160.275
381.17477417,4048.975
381.469543457,4003.5
381.764404297,3991.8
382.059143066,4014.175
382.353912354,4087.175
382.648651123,4144.625
382.943389893,4148.8
383.238067627,3985.5
383.532775879,3989.1
383.827484131,3942.275
384.12210083,3923.675
384.416778564,3876.35
384.711425781,3779.625
385.006011963,3808.225
385.300628662,3790.775
385.595184326,3860.65
385.88973999,3934.2
386.184295654,4044.35
386.478820801,4106.95
386.77331543,4181.075
387.067840576,4280.7
387.362335205,4358.05
387.656768799,4435.775
387.951202393,4462.175
388.245635986,4518.625
388.540039062,4596.7
388.834472656,4659.375
389.128875732,4564.175
389.423187256,4336.375
389.717559814,4305.975
390.011871338,4404.475
390.306182861,4425.425
390.600463867,4442.775
390.894775391,4476.3
391.189025879,4520.5
391.48324585,4514.05
391.777526855,4575.425
392.071685791,4753.125
392.365875244,4833.225
392.660064697,4907.675
392.95425415,5221.2
393.248382568,5197.975
393.542510986,4759.35
393.836608887,4594.7
394.130706787,4597.15
394.424804688,4534.225
394.71887207,4646.475
395.012878418,4631.075
395.306915283,4539.15
395.600921631,4474.05
395.894927979,4438.375
396.188903809,4483.3
396.482879639,4481.5
396.776794434,4688.5
397.070739746,4652.8
397.364654541,4660.675
397.658538818,5015.425
397.952423096,5040.675
398.246307373,5004.775
398.540100098,5523.825
398.833953857,5394.225
399.127746582,4923.95
399.421508789,4971.075
399.715301514,4906.15
400.009063721,4817.275
400.30279541,4672.9
400.596496582,4610.625
400.890258789,4752.975
401.183929443,4824.875
401.47756958,4731.825
401.771240234,4521.575
402.064880371,4526.475
402.35848999,4584.75
402.652130127,4485.2
402.945678711,4561.3
403.239257812,4502.225
403.532775879,4456.9
403.82635498,4479.275
404.119842529,4425.525
404.413360596,4423.325
404.706848145,4459.7
405.000274658,4403.1
405.293762207,4465.65
405.587188721,4531.175
405.880584717,4394.7
406.17401123,4214.925
406.467407227,4034.775
406.760742188,4035.225
407.054107666,4072.575
407.347442627,3999.8
407.640716553,3998.875
407.934051514,4055.05
408.227325439,4105.65
408.520568848,4315.75
408.813842773,4391.025
409.107086182,4219.175
409.400238037,4169.525
409.693450928,4109.575
409.986633301,4234.0
410.279754639,4148.475
410.572875977,3864.5
410.86605835,3803.775
411.159118652,3832.125
411.452209473,3836.525
411.745330811,3711.025
412.038360596,3643.375
412.331390381,3660.25
412.624420166,3701.525
412.917388916,3626.45
413.210388184,3463.125
413.503387451,3436.6
413.796295166,3349.975
414.089233398,3182.7
414.382141113,3114.075
414.675048828,3096.55
414.967926025,3134.775
415.260803223,3061.025
415.55368042,3100.375
415.846466064,3063.375
416.139282227,3149.65
416.432098389,3268.175
416.724853516,3260.65
417.017608643,3209.325
417.31036377,3212.825
417.603088379,3347.45
417.895782471,3315.275
418.188476562,3281.1
418.481140137,3347.4
418.773803711,3393.225
419.066436768,3372.75
419.359039307,3461.375
419.651641846,3463.375
419.944244385,3462.525
420.236816406,3432.525
420.529327393,3630.575
420.821899414,3699.325
421.114379883,3632.825
421.406860352,3893.925
421.699371338,4109.35
421.991821289,4063.175
422.284240723,3856.7
422.576721191,3712.825
422.869110107,3624.15
423.161468506,3590.075
423.453857422,3609.675
423.74621582,3511.35
424.038543701,3361.05
424.330871582,3337.45
424.623168945,3273.225
424.915435791,3405.7
425.207702637,3365.6
425.499969482,3329.85
425.792205811,3267.525
426.084411621,3020.5
426.376617432,3121.225
426.668762207,3186.15
426.9609375,3066.2
427.253082275,3192.55
427.545196533,3580.25
427.837310791,3313.95
428.129425049,3034.875
428.421447754,3249.45
428.713531494,3245.875
429.005554199,3235.925
429.297576904,3241.125
429.589599609,3653.525
429.881561279,3979.6
430.173522949,3759.45
430.465484619,3729.675
430.757415771,3792.275
431.049316406,3577.325
431.341186523,3336.7
431.633117676,3259.75
431.924957275,2964.375
432.21673584,2859.875
432.508636475,3003.0
432.800415039,3007.625
433.092163086,2928.725
433.383972168,2885.85
433.675689697,3587.325
433.967437744,4067.95
434.259155273,3131.7
434.550872803,2833.125
434.842498779,2883.3
435.134185791,3016.475
435.425842285,3032.75
435.717437744,2943.875
436.009063721,2774.85
436.30065918,2888.825
436.592224121,3246.425
436.883758545,3058.35
437.175323486,2797.375
437.466827393,2781.625
437.758331299,2785.775
438.049804688,2808.075
438.341247559,2879.65
438.63269043,2958.425
438.924163818,2934.45
439.215515137,2911.45
439.50692749,2801.9
439.798309326,2813.15
440.089660645,2822.2
440.380981445,2751.525
440.672332764,2727.95
440.963623047,2996.3
441.254882812,3443.3
441.546173096,3625.575
441.837402344,3371.825
442.128631592,3193.175
442.41986084,3174.825
442.711029053,3032.075
443.002197266,3116.7
443.293365479,3306.65
443.584503174,3426.6
443.875610352,3394.85
444.166717529,3140.075
444.457794189,3199.15
444.748840332,3179.025
445.039916992,3135.75
445.330932617,3235.675
445.621948242,3077.4
445.912963867,2893.825
446.203918457,3115.6
446.494812012,3338.2
446.785827637,3136.975
447.076721191,2959.05
447.367584229,2948.0
447.658447266,2918.325
447.949371338,2985.025
448.24017334,2842.425
448.530975342,2798.975
448.821838379,2944.25
449.112579346,3029.6
449.40335083,2962.975
449.694152832,3003.275
449.984863281,2992.225
450.27557373,2917.95
450.56628418,2995.325
450.856933594,3016.15
451.147583008,2851.575
451.438262939,2743.125
451.728881836,2944.575
452.019470215,3038.025
452.310089111,2835.275
452.600646973,2855.575
452.891174316,2917.6
453.181732178,2745.3
453.472229004,2615.65
453.762695312,2726.75
454.053222656,2759.8
454.343658447,2626.075
454.634063721,2564.525
454.924530029,2735.35
455.214935303,2872.125
455.505279541,2949.325
455.795715332,2803.0
456.086029053,2615.475
456.376312256,2603.675
456.666687012,2621.825
456.956939697,2735.0
457.247192383,2727.925
457.537445068,2789.425
457.827728271,2985.4
458.117919922,2914.475
458.408081055,2841.15
458.698303223,3018.3
458.988433838,2945.25
459.278564453,2765.725
459.568725586,3054.925
459.858825684,3176.575
460.148864746,2872.35
460.438995361,2823.15
460.729034424,2869.125
461.019042969,2883.425
461.309082031,3076.6
461.599060059,2948.15
461.889007568,2514.9
462.179016113,2341.25
462.468933105,2573.45
462.75881958,2675.2
463.048736572,2434.525
463.338592529,2680.925
463.628448486,3037.65
463.918365479,2753.75
464.2081604,2923.25
464.497924805,2873.9
464.787780762,3006.175
465.077514648,3303.05
465.367218018,2928.825
465.657012939,3127.775
465.946685791,3525.275
466.236358643,3141.875
466.526092529,2614.725
466.815734863,2596.325
467.105316162,2543.7
467.394927979,2580.975
467.684570312,2428.45
467.974121094,2520.475
468.263671875,2616.125
468.553222656,2415.65
468.842773438,2311.85
469.132232666,2209.45
469.42175293,2223.875
469.711212158,2200.875
470.000640869,2078.0
470.290100098,2133.125
470.579498291,2169.925
470.868835449,2172.95
471.158294678,2131.925
471.447601318,2109.4
471.736907959,2167.475
472.026275635,2261.65
472.315551758,2230.575
472.604797363,2227.0
472.894104004,2351.4
473.183319092,2465.65
473.47253418,2445.075
473.761779785,2449.55
474.05090332,2377.275
474.340087891,2336.925
474.629241943,2273.85
474.918365479,2451.8
475.207427979,2706.525
475.496551514,2716.475
475.785614014,2469.975
476.074645996,2272.525
476.363708496,2370.5
476.652679443,2509.4
476.941650391,2326.25
477.230682373,2169.85
477.519622803,2177.6
477.808502197,2324.225
478.097412109,2584.725
478.386352539,2540.575
478.675201416,2275.275
478.964050293,2182.575
479.25289917,2366.55
479.541717529,2424.375
479.830474854,2252.125
480.11932373,2604.65
480.408050537,2792.275
480.696777344,2398.4
480.985534668,2268.6
481.274200439,2357.525
481.562866211,2612.0
481.851593018,2626.625
482.140197754,2576.075
482.428833008,2424.6
482.717468262,2211.475
483.006011963,2237.275
483.294586182,2362.675
483.5831604,2407.65
483.871673584,2258.55
484.16015625,2420.125
484.448699951,2644.575
484.7371521,2688.275
485.02557373,2685.75
485.314025879,2416.55
485.602416992,3749.725
485.890777588,13327.95
486.179199219,11959.5
486.467559814,3210.8
486.755859375,2320.85
487.044219971,2710.575
487.332519531,2896.05
487.620758057,2490.05
487.908966064,2225.0
488.197265625,2030.075
488.485473633,1937.85
488.773651123,2045.15
489.061859131,2031.0
489.350006104,1994.85
489.638122559,1936.075
489.926300049,1955.825
490.214355469,1897.125
490.502441406,1851.3
490.790527344,1793.075
491.078552246,1973.925
491.366546631,1977.325
491.654602051,1750.725
491.942565918,1814.25
492.230499268,1860.0
492.518493652,1833.25
492.806396484,1868.675
493.094268799,1767.65
493.382202148,1822.125
493.670074463,1934.15
493.957885742,1779.5
494.245727539,1773.275
494.533508301,1940.375
494.821289062,1837.65
495.109100342,1680.4
495.396850586,1626.475
495.684539795,1579.0
495.972290039,1790.525
496.25994873,2130.375
496.547607422,2143.375
496.835296631,1957.825
497.122894287,1637.95
497.410522461,1559.9
497.6980896,1562.575
497.985687256,1532.5
498.273223877,1627.925
498.560760498,1700.225
498.848266602,1713.825
499.135772705,1709.475
499.423217773,1739.65
499.710693359,1840.375
499.998138428,1788.275
500.285522461,1623.9
500.572937012,1534.15
500.860290527,1596.825
501.147644043,1695.05
501.434997559,1921.275
501.722290039,1796.55
502.00958252,1554.15
502.296875,1816.575
502.584106445,1810.15
502.871337891,1625.575
503.158599854,1690.35
503.445770264,1782.525
503.732910156,1756.425
504.020141602,1571.05
504.307220459,1549.5
504.594329834,1591.675
504.881469727,1524.95
505.168518066,1588.575
505.455535889,1672.3
505.742614746,1531.575
506.029632568,1468.7
506.316589355,1656.45
506.603637695,1748.15
506.890563965,1554.675
507.177459717,1386.35
507.464385986,1291.3
507.751312256,1526.325
508.038146973,1613.075
508.325012207,1461.75
508.611877441,1522.7
508.898681641,1533.05
509.185424805,1379.325
509.472259521,1330.825
509.759002686,1421.775
510.045715332,1452.9
510.332458496,1388.5
510.619140625,1448.975
510.905761719,1362.25
511.192504883,1358.55
511.479095459,1402.725
511.765686035,1354.275
512.052307129,1268.375
512.338928223,1218.425
512.625427246,1267.8
512.91204834,1332.475
513.198486328,1307.425
513.484985352,1264.85
513.77142334,1202.0
514.057922363,1247.55
514.344299316,1240.475
514.63079834,1206.3
514.917175293,1193.425
515.203552246,1088.825
515.489868164,1070.925
515.776245117,1194.625
516.0625,1235.725
516.348815918,1141.425
516.635070801,1182.875
516.921325684,1242.55
517.207580566,1169.15
517.493774414,1074.05
517.779968262,1084.1
518.066101074,1126.225
518.352294922,1084.175
518.638366699,1075.4
518.924499512,1159.425
519.210632324,1237.25
519.496643066,1194.6
519.782714844,1101.0
520.068786621,1067.425
520.354736328,1023.075
520.640686035,985.625
520.926757812,1031.0
521.212646484,1108.825
521.498535156,1108.65
521.784484863,1055.225
522.0703125,981.85
522.356262207,1004.7
522.642089844,1083.7
522.927856445,1086.75
523.213684082,1086.925
523.499511719,1064.825
523.78527832,1101.075
524.070983887,1161.45
524.356750488,1136.225
524.64239502,1088.275
524.928039551,1086.35
525.213806152,1096.2
525.499389648,1087.425
525.784973145,1116.6
526.070617676,1166.375
526.356140137,1131.725
526.641723633,1128.575
526.927307129,1188.025
527.212768555,1199.425
527.498291016,1175.75
527.783752441,1180.275
528.069213867,1154.925
528.354675293,1183.925
528.640014648,1329.8
528.925476074,1410.575
529.21081543,1326.0
529.496154785,1305.925
529.781555176,1271.625
530.066833496,1281.775
530.352050781,1305.125
530.637390137,1296.85
530.922607422,1290.75
531.207824707,1293.7
531.493041992,1280.125
531.778198242,1347.55
532.063354492,1328.15
532.348571777,1267.025
532.633666992,1281.4
532.918762207,1362.125
533.203857422,1443.0
533.488891602,1478.9
533.773925781,1426.475
534.059020996,1392.85
534.343933105,1430.35
534.628967285,1394.975
534.91394043,1418.575
535.198852539,1429.0
535.483703613,1405.325
535.768676758,1347.575
536.053527832,1345.7
536.338317871,1311.575
536.62322998,1249.5
536.90802002,1228.425
537.192810059,1243.775
537.477539062,1323.925
537.762329102,1364.375
538.047058105,1402.3
538.331726074,1430.6
538.616455078,1423.2
538.901123047,1398.4
539.18572998,1443.175
539.470397949,1440.275
539.755004883,1428.95
540.039550781,1403.55
540.32409668,1364.8
540.608703613,1399.7
540.893188477,1497.55
541.17767334,1519.075
541.462158203,1509.35
541.746643066,1458.35
542.031066895,1499.15
542.315429688,1548.25
542.59979248,1547.45
542.884216309,1520.725
543.168579102,1513.725
543.452941895,1528.35
543.737243652,1580.775
544.021484375,1627.95
544.305725098,1612.125
544.590026855,1589.575
544.874267578,1598.975
545.158447266,1679.35
545.442626953,1599.425
545.726806641,1484.075
546.010925293,1518.85
546.29510498,1550.375
546.579162598,1550.625
546.863220215,1579.55
547.147277832,1649.9
547.431335449,1720.675
547.715332031,1785.8
547.999328613,1902.7
548.283325195,1905.775
548.567260742,1776.2
548.851135254,1735.65
549.135070801,1702.125
549.419006348,1618.175
549.702819824,1706.3
549.986755371,1781.2
550.270507812,1748.925
550.554321289,1787.825
550.83807373,1802.1
551.121826172,1767.525
551.405517578,1782.025
551.689331055,1883.4
551.973022461,2117.8
552.256652832,2178.85
552.540344238,2082.3
552.823974609,2064.75
553.107543945,2050.85
553.391174316,2114.625
553.674743652,2152.7
553.958251953,2171.05
554.241821289,2179.65
554.525268555,2120.1
554.808776855,2114.95
555.092285156,2311.4
555.375671387,2389.95
555.659057617,2381.975
555.942504883,2413.6
556.225891113,2443.675
556.509216309,2404.5
556.792541504,2309.875
557.075866699,2385.15
557.359130859,2437.55
557.64239502,2432.05
557.92565918,2510.45
558.208862305,2486.075
558.49206543,2426.475
558.77532959,2452.25
559.058410645,2491.5
559.341552734,2482.4
559.624694824,2539.425
559.907775879,2614.25
560.190856934,2741.5
560.473937988,2719.225
560.756896973,2768.7
561.039978027,2796.25
561.322937012,2743.7
561.605895996,2753.05
561.88885498,2712.375
562.171813965,2706.1
562.454650879,2715.625
562.737548828,2746.025
563.020446777,2816.075
563.303283691,2838.925
563.58605957,2882.95
563.868896484,2887.675
564.151672363,2934.15
564.434387207,2988.475
564.717163086,2949.975
564.99987793,2966.9
565.282531738,3043.675
565.565185547,2982.825
565.847839355,3013.575
566.130432129,3130.15
566.413085938,3105.8
566.695678711,3101.95
566.978149414,3221.05
567.260681152,3372.6
567.543273926,3453.325
567.825744629,3349.85
568.108154297,3391.925
568.390686035,3521.7
568.673095703,3626.825
568.955505371,3693.25
569.237854004,3714.775
569.520202637,4010.2
569.802490234,4205.825
570.084838867,4176.1
570.367126465,4015.125
570.649414062,4039.925
570.93170166,4398.0
571.213928223,4472.15
571.496154785,4232.5
571.778381348,4458.75
572.06048584,4732.325
572.342590332,4246.175
572.624755859,3917.325
572.906860352,3971.275
573.188903809,4662.15
573.470947266,4914.35
573.752990723,4676.625
574.03503418,4780.4
574.317016602,5170.975
574.598937988,4958.975
574.88092041,4828.375
575.162841797,5024.825
575.444763184,4641.075
575.726623535,4381.225
576.008483887,4441.425
576.290344238,4857.775
576.572143555,5063.125
576.853881836,5131.65
577.135681152,5013.85
577.417419434,5081.625
577.699157715,5946.375
577.980895996,6156.55
578.262573242,5472.625
578.544128418,4975.375
578.825866699,4931.025
579.107421875,4610.85
579.388977051,4780.775
579.670593262,5197.625
579.952148438,5036.15
580.233642578,5154.05
580.515197754,5270.175
580.796691895,4947.55
581.078125,5121.575
581.359619141,6680.35
581.640991211,6780.5
581.922363281,5861.2
582.203796387,5916.25
582.485107422,5528.05
582.766418457,5121.45
583.047790527,4964.525
583.329040527,4862.325
583.610290527,4714.85
583.891540527,4838.625
584.172790527,5174.75
584.453918457,5166.9
584.735107422,5242.95
585.016235352,5713.525
585.297363281,5666.125
585.578552246,5461.3
585.859619141,5401.35
586.140625,5176.65
586.421630859,5032.925
586.702697754,5080.7
586.983642578,5290.0
587.264648438,5491.325
587.545654297,5424.275
587.826477051,5366.8
588.107421875,5182.325
588.388305664,5217.95
588.669189453,5286.45
588.950012207,5159.4
589.230834961,5061.075
589.511657715,5151.975
589.792358398,5244.35
590.073120117,5251.65
590.353881836,5236.825
590.63458252,5250.5
590.915283203,5228.175
591.195922852,5209.075
591.4765625,5245.325
591.757202148,5293.05
592.037780762,5285.875
592.31829834,5273.475
592.598937988,5489.075
592.879394531,5658.45
593.159912109,5571.6
593.440429688,5525.8
593.720825195,5512.325
594.001281738,5488.9
594.281677246,5412.75
594.562072754,5428.725
594.842407227,5519.95
595.122802734,5554.825
595.403137207,5537.225
595.683410645,5514.125
595.963623047,5490.25
596.243896484,5467.175
596.524169922,5465.5
596.804382324,5475.35
597.084533691,5505.375
597.364746094,5548.05
597.644836426,5561.575
597.924987793,5543.375
598.205078125,5497.7
598.485107422,5540.55
598.765197754,5683.525
599.045227051,5754.525
599.325195312,5641.225
599.605224609,5585.675
599.885192871,5642.275
600.165100098,5691.2
600.445007324,5639.05
600.724914551,5642.75
601.004760742,5643.6
601.284667969,5683.925
601.56451416,5632.65
601.844238281,5628.525
602.124084473,5645.275
602.403808594,5648.4
602.683532715,5659.675
602.963256836,5674.5
603.242919922,5720.55
603.522583008,5781.8
603.802246094,5720.575
604.081848145,5681.25
604.36138916,5652.8
604.641052246,5717.375
604.920532227,5699.35
605.200073242,5739.325
605.479614258,5723.925
605.759094238,5772.7
606.038574219,5763.45
606.317932129,5721.975
606.597412109,5742.425
606.87677002,5732.825
607.15612793,5765.8
607.435546875,5767.025
607.714782715,5768.1
607.99407959,5732.975
608.273376465,5729.6
608.552612305,5771.35
608.831848145,5779.25
609.111083984,5759.275
609.390258789,5733.4
609.669433594,5721.725
609.948608398,5812.725
610.227722168,5783.55
610.506713867,5721.05
610.785888672,5726.6
611.064880371,5725.2
611.34387207,5747.075
611.622924805,5746.15
611.901916504,5739.4
612.180847168,5687.775
612.459777832,5698.7
612.738647461,5696.225
613.01751709,5661.725
613.296447754,5604.625
613.575317383,5590.8
613.854064941,5551.875
614.132873535,5454.825
614.411621094,5423.925
614.690368652,5362.8
614.969177246,5313.375
615.247802734,5210.475
615.526489258,5217.05
615.805175781,5101.475
616.08380127,4976.0
616.362365723,4888.9
616.640991211,4856.475
616.919555664,4792.775
617.198059082,4924.45
617.4765625,5204.925
617.755126953,5348.9
618.033569336,5385.35
618.311950684,5351.95
618.590454102,5363.95
618.868774414,5329.125
619.147155762,5351.8
619.425598145,5325.925
619.703857422,5329.925
619.982177734,5357.8
620.260498047,5333.0
620.538757324,5327.275
620.816955566,5322.075
621.095214844,5258.5
621.373413086,5282.75
621.651550293,5325.7
621.929748535,5347.85
622.207824707,5365.475
622.485900879,5366.7
622.764038086,5376.1
623.042053223,5406.375
623.320007324,5429.45
623.598083496,5430.5
623.876037598,5414.325
624.153991699,5431.5
624.432006836,5448.025
624.709838867,5453.2
624.987731934,5456.275
625.265563965,5458.3
625.543395996,5470.075
625.821228027,5526.3
626.098999023,5509.55
626.376831055,5570.225
626.654541016,5573.0
626.932250977,5583.425
627.209960938,5647.0
627.487670898,5684.725
627.765319824,5675.025
628.04296875,5702.2
628.320495605,5691.475
628.598083496,5709.65
628.875671387,5747.25
629.153259277,5777.85
629.430725098,5844.4
629.708251953,5823.5
629.985656738,5850.65
630.263122559,5896.05
630.540588379,5909.525
630.817932129,5938.625
631.095275879,5965.775
631.372680664,6015.925
631.649963379,6062.525
631.927246094,6115.775
632.204589844,6141.05
632.481811523,6216.3
632.759033203,6282.3
633.036254883,6310.625
633.313415527,6402.475
633.590576172,6455.325
633.867736816,6547.5
634.144836426,6635.9
634.421875,6690.8
634.698913574,6754.825
634.976013184,6782.25
635.252990723,6855.475
635.529968262,6887.6
635.807006836,6975.55
636.08392334,6950.35
636.360839844,6843.45
636.637756348,6761.225
636.914611816,6724.025
637.191467285,6725.275
637.468261719,6809.2
637.745056152,6772.7
638.021789551,6785.7
638.298583984,6786.075
638.575317383,6844.325
638.851989746,6840.275
639.12878418,6856.425
639.405395508,6828.225
639.682006836,6879.075
639.958618164,6868.225
640.235229492,6860.425
640.511779785,6899.025
640.788330078,6854.225
641.064880371,6908.7
641.341308594,6881.375
641.617797852,6891.175
641.894226074,6900.2
642.170654297,6908.525
642.44708252,6919.75
642.723388672,6904.825
642.999755859,6898.875
643.276123047,6888.175
643.552429199,6869.175
643.828674316,6900.025
644.104919434,6873.175
644.381164551,6867.175
644.657348633,6856.875
644.933532715,6838.775
645.209716797,6841.7
645.485839844,6847.55
645.761901855,6863.55
646.038024902,6844.5
646.314086914,6879.5
646.590087891,6860.5
646.866149902,6900.85
647.142150879,6851.225
647.41809082,6820.25
647.694030762,6841.9
647.969970703,6808.4
648.245788574,6850.1
648.521728516,6861.725
648.797546387,6824.275
649.073303223,6849.2
649.349182129,6811.525
649.624938965,6820.45
649.900634766,6808.4
650.176391602,6802.7
650.452087402,6786.1
650.727783203,6801.3
651.003479004,6813.3
651.279052734,6817.675
651.554626465,6786.425
651.83026123,6783.675
652.105773926,6817.35
652.381286621,6764.25
652.656860352,6782.25
652.932312012,6810.4
653.207763672,6809.375
653.483215332,6850.25
653.758605957,6836.5
654.033935547,6833.725
654.309326172,6808.1
654.584716797,6852.025
654.859985352,6842.025
655.135253906,6838.75
655.410583496,6877.25
655.685791016,7898.025
655.9609375,12318.85
656.236206055,12077.525
656.511291504,8045.9
656.786437988,7055.8
657.061645508,6942.75
657.336669922,6915.425
657.611694336,6955.225
657.886779785,6987.225
658.161804199,6991.225
658.436828613,6952.675
658.711791992,6983.375
658.986755371,6995.45
659.261657715,7032.875
659.536621094,7031.5
659.811401367,7041.2
660.086303711,7061.4
660.36114502,7055.5
660.635864258,7065.875
660.910644531,7083.4
661.185424805,7074.0
661.460205078,7123.575
661.734863281,7101.35
662.009521484,7103.65
662.284179688,7133.225
662.558776855,7162.725
662.833435059,7205.05
663.108032227,7218.825
663.382568359,7176.575
663.657043457,7232.925
663.93157959,7281.025
664.206054688,7255.7
664.48046875,7296.5
664.755004883,7305.0
665.02935791,7347.575
665.303710938,7362.75
665.578125,7360.275
665.852416992,7376.45
666.126708984,7392.275
666.401062012,7396.4
666.675292969,7445.275
666.949462891,7438.7
667.223754883,7422.3
667.497924805,7473.75
667.772094727,7490.3
668.046264648,7464.8
668.3203125,7527.2
668.594421387,7551.425
668.868469238,7559.55
669.14251709,7567.9
669.416503906,7615.5
669.690551758,7623.925
669.964477539,7631.6
670.23840332,7637.275
670.512329102,7648.675
670.786254883,7613.825
671.060058594,7687.175
671.333984375,7708.25
671.607788086,7753.525
671.881530762,7719.225
672.155334473,7770.525
672.429077148,7782.775
672.702758789,7770.975
672.97644043,7761.575
673.25012207,7769.4
673.523742676,7758.075
673.797302246,7787.0
674.070922852,7871.35
674.344482422,7832.0
674.618041992,7867.025
674.891601562,7888.0
675.165100098,7882.6
675.438476562,7892.225
675.711975098,7907.175
675.985412598,7876.4
676.258789062,7876.675
676.532165527,7923.1
676.805480957,7898.475
677.078796387,7949.9
677.352111816,7963.975
677.625366211,7967.6
677.898620605,7946.8
678.171875,8026.225
678.445007324,7998.4
678.718200684,8041.35
678.991394043,8020.7
679.264404297,8033.975
679.537536621,8100.5
679.81060791,8108.325
680.083679199,8126.9
680.356689453,8101.725
680.629699707,8116.475
680.902648926,8099.75
681.175598145,8162.6
681.448547363,8176.95
681.721435547,8130.875
681.99420166,8157.8
682.267150879,8165.85
682.539916992,8225.125
682.812744141,8194.925
683.085510254,8180.975
683.358215332,8234.675
683.63092041,8222.175
683.903625488,8200.9
684.176330566,8222.25
684.448913574,8201.1
684.721557617,8195.8
684.99420166,8267.475
685.266662598,8231.325
685.539245605,8267.2
685.811767578,8312.325
686.084289551,8302.325
686.356689453,8334.725
686.629150391,8352.4
686.901550293,8419.0
687.17401123,8421.075
687.446350098,8453.075
687.718688965,8430.675
687.990966797,8494.0
688.263305664,8492.1
688.535522461,8485.7
688.807739258,8478.225
689.079956055,8539.275
689.352172852,8558.65
689.624328613,8543.45
689.896484375,8580.225
690.168518066,8609.225
690.440612793,8613.975
690.71270752,8639.05
690.984741211,8631.325
691.256713867,8658.325
691.528747559,8659.45
691.800720215,8676.3
692.072631836,8700.6
692.344543457,8707.075
692.616394043,8736.625
692.888244629,8765.075
693.160095215,8805.5
693.431945801,8837.475
693.703674316,8790.875
693.975463867,8784.975
694.247131348,8850.125
694.518859863,8835.525
694.790588379,8880.725
695.062255859,8903.625
695.33380127,8886.85
695.60546875,8891.275
695.87701416,8931.85
696.148498535,8924.975
696.42010498,8963.825
696.691589355,9009.925
696.96307373,9016.8
697.234558105,9041.7
697.50592041,9052.2
697.777282715,9057.525
698.048706055,9057.725
698.320068359,9132.375
698.591308594,9087.525
698.862670898,9087.825
699.133972168,9098.275
699.405151367,9090.4
699.676391602,9157.5
699.947570801,9121.375
700.21875,9176.55
700.489868164,9176.0
700.761047363,9167.7
701.032104492,9207.35
701.303100586,9175.725
701.57421875,9235.55
701.845214844,9241.375
702.116149902,9276.875
702.387207031,9242.25
702.65814209,9275.175
702.928955078,9350.575
703.199951172,9275.175
703.47076416,9287.375
703.741577148,9249.725
704.012451172,9312.025
704.28314209,9332.475
704.553955078,9310.7
704.824707031,9387.55
705.095397949,9389.4
705.366027832,9384.975
705.63671875,9388.975
705.907348633,9362.7
706.17791748,9391.0
706.448486328,9423.4
706.719055176,9461.075
706.989562988,9478.25
707.260131836,9490.225
707.530517578,9509.1
707.800964355,9500.625
708.071411133,9447.6
708.341796875,9452.45
708.612182617,9473.25
708.882446289,9438.65
709.152893066,9495.925
709.423156738,9526.55
709.693359375,9477.05
709.963623047,9467.3
710.233825684,9509.5
710.503967285,9508.725
710.774169922,9507.025
711.044311523,9486.125
711.31439209,9507.925
711.584533691,9546.075
711.854553223,9537.7
712.124572754,9547.475
712.39465332,9492.475
712.664611816,9562.875
712.934509277,9608.7
713.204467773,9584.275
713.474365234,9562.125
713.74420166,9581.375
714.014099121,9644.225
714.283874512,9626.45
714.553710938,9650.375
714.823486328,9645.1
715.093200684,9645.075
715.362915039,9642.5
715.632629395,9635.05
715.902282715,9607.825
716.171875,9619.5
716.441589355,9653.775
716.711181641,9595.625
716.980712891,9637.225
717.250244141,9622.05
717.519775391,9622.8
717.78918457,9635.075
718.058654785,9698.95
718.328125,9687.0
718.597473145,9655.825
718.866882324,9670.575
719.136230469,9666.3
719.405578613,9689.6
719.674865723,9718.625
719.944152832,9712.55
720.213439941,9668.725
720.48260498,9733.55
720.75177002,9713.575
721.020996094,9734.325
721.290100098,9757.825
721.559204102,9695.75
721.828308105,9731.05
722.097351074,9747.6
722.366455078,9714.075
722.635437012,9722.6
722.904418945,9699.525
723.173400879,9757.225
723.442321777,9771.625
723.711181641,9733.15
723.980102539,9744.8
724.248962402,9771.1
724.51776123,9748.05
724.786560059,9795.175
725.055358887,9765.6
725.324035645,9768.025
725.592834473,9772.5
725.86151123,9741.6
726.130187988,9771.275
726.398803711,9714.925
726.667419434,9755.575
726.935974121,9731.05
727.204528809,9665.425
727.473083496,9665.825
727.741638184,9674.775
728.010070801,9608.725
728.278564453,9640.225
728.546936035,9657.7
728.815368652,9547.725
729.08380127,9499.85
729.352111816,9460.075
729.620361328,9399.975
729.88873291,9464.675
730.156982422,9528.225
730.425231934,9474.55
730.693481445,9494.225
730.961669922,9589.5
731.229797363,9601.375
731.49798584,9610.025
731.766113281,9698.5
732.034118652,9805.55
732.302246094,9823.475
732.570251465,9885.075
732.838256836,9899.925
733.106262207,10002.7
733.374145508,10021.0
733.642089844,10071.175
733.909973145,10115.8
734.177856445,10223.9
734.445678711,10290.975
734.713562012,10384.85
734.981323242,10394.825
735.249084473,10459.825
735.516845703,10636.9
735.784545898,10696.325
736.052185059,10742.45
736.319885254,10867.375
736.587524414,10887.15
736.855102539,10966.725
737.122619629,11095.775
737.390197754,11141.35
737.657714844,11253.2
737.925170898,11343.525
738.192749023,11467.5
738.460144043,11525.375
738.727539062,11553.325
738.994995117,11685.025
739.262329102,11743.075
739.529663086,11879.15
739.79699707,11881.6
740.06427002,11982.3
740.331481934,12093.1
740.598754883,12134.45
740.865905762,12167.925
741.133056641,12330.6
741.40032959,12331.55
741.667358398,12445.9
741.934448242,12491.575
742.201599121,12500.475
742.468566895,12602.425
742.735534668,12673.575
743.002563477,12689.7
743.26953125,12687.5
743.536437988,12791.425
743.803405762,12904.6
744.0703125,12868.2
744.337097168,12993.175
744.604003906,12855.45
744.870727539,12957.025
745.137512207,12999.5
745.40423584,13032.125
745.670959473,13018.075
745.93762207,13035.375
746.204284668,13029.0
746.470947266,13061.1
746.737548828,13036.625
747.004089355,13057.05
747.270751953,13077.85
747.53717041,13140.725
747.803710938,13071.025
748.070251465,13027.125
748.336608887,13066.425
748.603027344,13030.8
748.869445801,13069.925
749.135803223,13048.125
749.402099609,13067.2
749.668457031,13069.35
749.934753418,13003.9
750.20098877,12970.4
750.467224121,13043.45
750.733459473,12978.825
750.999572754,12965.875
751.26574707,12848.825
751.531860352,12950.65
751.797912598,12893.775
752.064025879,12851.125
752.330078125,12873.775
752.596069336,12849.25
752.862060547,12800.0
753.127990723,12801.3
753.393920898,12753.65
753.659912109,12697.125
753.925720215,12723.875
754.19152832,12683.4
754.457397461,12635.125
754.723144531,12595.75
754.988952637,12546.4
755.254699707,12569.3
755.520385742,12615.075
755.786071777,12583.225
756.051696777,12538.35
756.317382812,12485.8
756.582946777,12454.275
756.848510742,12479.875
757.114074707,12408.775
757.379577637,12407.975
757.645080566,12470.1
757.910583496,12446.4
758.175964355,12365.475
758.441345215,12339.375
758.706848145,12148.075
758.972106934,12202.825
759.237426758,12240.55
759.502807617,12247.475
759.768005371,12240.275
760.03326416,12194.4
760.298522949,12147.6
760.563659668,12172.825
760.828857422,12122.4
761.093994141,12145.575
761.359130859,12093.225
761.624206543,12076.675
761.889282227,12036.0
762.15423584,11996.575
762.419250488,11977.95
762.684265137,11919.575
762.949157715,11893.275
763.214050293,11866.15
763.479003906,11835.625
763.743835449,11822.975
764.008666992,11791.45
764.2734375,11811.925
764.538208008,11806.825
764.802978516,11850.85
765.067687988,11805.175
765.332397461,11802.55
765.597045898,11733.35
765.861694336,11704.7
766.126342773,11667.575
766.390930176,11660.75
766.655395508,11566.65
766.920043945,11571.825
767.184509277,11570.4
767.448974609,11558.025
767.713439941,11541.125
767.977783203,11509.15
768.2421875,11581.225
768.506591797,11472.375
768.770874023,11590.5
769.03515625,11516.45
769.299499512,11503.35
769.563720703,11513.35
769.827941895,11439.0
770.092163086,11440.6
770.356323242,11433.25
770.620483398,11431.6
770.88458252,11448.7
771.148681641,11456.025
771.412719727,11407.55
771.676757812,11427.925
771.940734863,11354.675
772.204711914,11353.1
772.468688965,11340.3
772.73260498,11322.35
772.996459961,11315.35
773.260314941,10082.425
773.524169922,1286.05
773.787963867,156.0
774.051696777,123.5
774.315551758,117.75
774.579223633,120.25
774.842895508,117.325
775.106567383,120.025
775.370239258,118.7
775.633789062,123.5
775.897399902,125.95
776.160949707,115.75
776.424499512,117.75
776.687988281,122.9
776.951477051,125.225
777.214904785,119.65
777.47833252,120.725
