191.299911499,98.05
191.603515625,102.725
191.907119751,94.95
192.210693359,105.5
192.514251709,98.525
192.817810059,101.15
193.121368408,102.75
193.42489624,104.875
193.728408813,98.6
194.031936646,97.075
194.33543396,94.7
194.638916016,112.375
194.94241333,97.55
195.245880127,98.05
195.549331665,95.075
195.852767944,101.7
196.156204224,181.675
196.459625244,178.225
196.763015747,179.1
197.066436768,184.675
197.369812012,180.375
197.673187256,181.175
197.9765625,176.125
198.279922485,175.925
198.583251953,173.25
198.886581421,179.85
199.18989563,183.05
199.493209839,182.25
199.79649353,173.45
200.09979248,185.4
200.403076172,176.0
200.706314087,179.625
201.009567261,179.825
201.312820435,177.775
201.616027832,170.275
201.919235229,167.75
202.222457886,178.1
202.525634766,179.5
202.828826904,170.225
203.132003784,166.85
203.435150146,172.95
203.738296509,169.55
204.041412354,167.85
204.344558716,175.475
204.647659302,176.05
204.950759888,177.75
205.253845215,174.575
205.556930542,173.375
205.859985352,174.525
206.163024902,174.15
206.466079712,174.4
206.769104004,179.9
207.072113037,176.0
207.375137329,175.575
207.678131104,174.975
207.981109619,178.075
208.284088135,175.8
208.587036133,175.725
208.889984131,177.875
209.19291687,182.125
209.495849609,179.425
209.798751831,180.85
210.101654053,176.85
210.404556274,180.925
210.707427979,178.55
211.010269165,184.375
211.31312561,185.05
211.615982056,181.5
211.918807983,186.1
212.221618652,177.975
212.524429321,176.875
212.827224731,185.225
213.130004883,184.175
213.432769775,184.825
213.735534668,187.65
214.038269043,186.425
214.341003418,188.875
214.643737793,189.775
214.946456909,193.025
215.249145508,194.0
215.551834106,194.4
215.854507446,193.525
216.157165527,189.5
216.45980835,196.225
216.762451172,197.225
217.065078735,198.55
217.36769104,195.25
217.670303345,197.325
217.972885132,205.975
218.275466919,205.25
218.578048706,198.425
218.880599976,209.075
219.183120728,207.625
219.485656738,208.175
219.788192749,210.7
220.090682983,216.8
220.393188477,225.175
220.695663452,245.75
220.998138428,258.8
221.300582886,287.725
221.603042603,303.8
221.905487061,332.425
222.207901001,375.175
222.510299683,416.8
222.812728882,476.2
223.115097046,530.475
223.41746521,599.25
223.719848633,665.0
224.022171021,727.725
224.324508667,806.5
224.626846313,899.375
224.929168701,982.2
225.231460571,1073.85
225.533737183,1150.65
225.836013794,1235.925
226.138290405,1322.3
226.440536499,1418.975
226.742767334,1498.425
227.044998169,1560.9
227.347213745,1652.45
227.649429321,1720.3
227.951629639,1773.85
228.253799438,1844.8
228.555953979,1911.625
228.858123779,1961.75
229.160263062,2003.45
229.462371826,2038.925
229.764511108,2089.6
230.066619873,2126.0
230.36869812,2159.2
230.670776367,2198.45
230.972854614,2244.4
231.274902344,2299.625
231.576950073,2325.575
231.878967285,2367.6
232.180999756,2425.325
232.48298645,2461.775
232.784988403,2523.6
233.086975098,2541.625
233.388946533,2582.95
233.69090271,2631.3
233.992858887,2670.325
234.294769287,2711.325
234.596694946,2737.5
234.898605347,2781.6
235.200500488,2812.425
235.502380371,2827.35
235.804244995,2871.85
236.106109619,2876.65
236.407958984,2905.75
236.709777832,2951.65
237.011581421,2971.425
237.313400269,2980.15
237.615203857,2988.5
237.916976929,3040.225
238.21875,3043.275
238.520507812,3058.9
238.822250366,3088.55
239.12399292,3108.2
239.425704956,3128.5
239.727401733,3104.0
240.02911377,3145.625
240.330780029,3163.4
240.632446289,3196.9
240.93409729,3218.775
241.23576355,3245.8
241.537384033,3256.325
241.839004517,3291.1
242.140594482,3324.9
242.442199707,3364.25
242.743774414,3383.175
243.045333862,3438.8
243.346923828,3462.2
243.648452759,3506.475
243.949966431,3525.7
244.251495361,3577.3
244.552993774,3611.85
244.854492188,3617.425
245.155975342,3655.2
245.457443237,3709.275
245.758880615,3731.875
246.060333252,3774.8
246.36177063,3791.85
246.66317749,3811.625
246.964569092,3839.3
247.265945435,3859.95
247.567337036,3917.95
247.86869812,3988.05
248.170059204,4001.525
248.471389771,4057.175
248.772705078,4119.15
249.074035645,4190.475
249.375335693,4257.725
249.676620483,4276.45
249.977890015,4362.5
250.279159546,4461.1
250.58039856,4522.5
250.881637573,4584.2
251.182876587,4675.975
251.484069824,4804.825
251.785263062,4874.3
252.086456299,4998.675
252.387619019,5073.55
252.688781738,5141.5
252.989929199,5238.675
253.291061401,5327.45
253.592178345,5428.3
253.893280029,5508.9
254.194366455,5584.625
254.49546814,5630.7
254.796524048,5675.975
255.097579956,5775.575
255.398620605,5792.95
255.699645996,5887.6
256.000640869,5900.3
256.30166626,5948.3
256.602661133,6004.525
256.903656006,6010.175
257.204589844,6018.4
257.505523682,6005.8
257.80645752,6053.875
258.107391357,6027.975
258.408294678,6033.7
258.709228516,6002.25
259.010070801,5957.775
259.310943604,5976.9
259.611846924,5887.25
259.912658691,5856.15
260.213500977,5825.4
260.514343262,5808.675
260.815124512,5708.275
261.115936279,5667.55
261.416717529,5675.775
261.717468262,5620.6
262.018218994,5591.5
262.318969727,5565.925
262.619689941,5596.975
262.920410156,5607.2
263.221130371,5656.975
263.521789551,5662.975
263.822479248,5702.2
264.123138428,5728.675
264.42376709,5732.1
264.72442627,5727.425
265.025054932,5718.55
265.325622559,5734.125
265.626251221,5691.8
265.926818848,5651.9
266.227386475,5594.1
266.527954102,5560.725
266.828460693,5545.8
267.12902832,5456.225
267.429534912,5397.225
267.730010986,5329.4
268.030517578,5287.75
268.330993652,5257.975
268.631439209,5197.0
268.931915283,5177.75
269.232299805,5130.125
269.532745361,5093.05
269.8331604,5031.3
270.133544922,5012.8
270.433929443,4966.1
270.734313965,4947.2
271.034637451,4941.575
271.334991455,4922.975
271.635314941,4964.525
271.935638428,4939.375
272.235931396,4962.325
272.536254883,4989.3
272.836486816,5042.225
273.136749268,5077.325
273.437011719,5150.35
273.737213135,5222.075
274.037445068,5263.6
274.337677002,5331.9
274.6378479,5396.925
274.938049316,5517.4
275.238220215,5569.1
275.538360596,5664.45
275.838500977,5709.35
276.138641357,5833.2
276.438751221,5853.7
276.738830566,5935.525
277.03894043,5959.05
277.338989258,6056.7
277.639038086,6111.125
277.939056396,6164.325
278.239105225,6207.925
278.539093018,6288.0
278.839141846,6311.4
279.139129639,6343.175
279.439086914,6407.0
279.739044189,6446.95
280.039001465,6495.4
280.338928223,6530.85
280.63885498,6564.775
280.938781738,6608.65
281.238647461,6631.25
281.538513184,6606.75
281.838409424,6636.35
282.138244629,6661.825
282.438079834,6670.3
282.737945557,6690.15
283.037719727,6672.25
283.337524414,6698.125
283.637298584,6692.9
283.937072754,6697.8
284.236816406,6704.75
284.536560059,6694.925
284.836303711,6699.675
285.136016846,6716.225
285.43572998,6734.325
285.735412598,6709.4
286.035064697,6709.85
286.334747314,6744.0
286.634368896,6748.925
286.933990479,6674.75
287.233642578,6615.575
287.533203125,6605.65
287.832824707,6552.75
288.132385254,6474.925
288.431945801,6352.65
288.731506348,6264.475
289.031036377,6119.05
289.330566406,6007.3
289.630065918,5999.725
289.92956543,5983.875
290.229034424,6045.75
290.528503418,6155.05
290.827941895,6290.075
291.127380371,6441.575
291.42678833,6511.925
291.726226807,6626.825
292.025604248,6630.55
292.324981689,6656.475
292.624359131,6652.675
292.923736572,6679.725
293.223052979,6708.025
293.522369385,6677.2
293.821685791,6643.875
294.12097168,6646.225
294.420257568,6603.7
294.719543457,6574.15
295.018768311,6576.75
295.318023682,6483.775
295.617248535,6468.125
295.916442871,6418.5
296.215667725,6346.95
296.514862061,6260.425
296.813995361,6068.4
297.11315918,5913.575
297.412322998,5794.65
297.711425781,5741.975
298.010559082,5896.025
298.309631348,6075.4
298.608734131,6237.325
298.907806396,6392.95
299.206848145,6533.65
299.505889893,6565.725
299.804901123,6656.05
300.103912354,6727.025
300.402954102,6792.75
300.701904297,6821.3
301.00088501,6908.7
301.299835205,6941.475
301.5987854,6955.175
301.897735596,7025.975
302.196624756,7079.675
302.495513916,7147.5
302.794403076,7155.075
303.093292236,7199.5
303.392120361,7279.0
303.690979004,7311.175
303.989837646,7360.125
304.288604736,7399.875
304.587402344,7379.0
304.886199951,7427.6
305.184967041,7483.65
305.483734131,7526.125
305.782501221,7539.6
306.081176758,7560.7
306.37991333,7579.5
306.678619385,7585.375
306.977294922,7603.425
307.275970459,7600.9
307.574645996,7642.225
307.873260498,7625.125
308.171875,7623.925
308.470489502,7598.475
308.769104004,7546.4
309.067687988,7561.875
309.366241455,7584.75
309.664794922,7531.925
309.963348389,7546.15
310.261871338,7520.25
310.560394287,7545.725
310.858856201,7583.475
311.157348633,7585.775
311.455810547,7594.325
311.754272461,7594.925
312.052703857,7690.175
312.351135254,7683.9
312.649536133,7702.6
312.947937012,7667.525
313.246307373,7691.525
313.544647217,7713.675
313.843017578,7668.35
314.141387939,7624.7
314.439697266,7663.9
314.738006592,7580.675
315.036315918,7551.65
315.334564209,7466.325
315.6328125,7435.75
315.931091309,7377.275
316.229309082,7275.975
316.527526855,7162.675
316.825744629,7134.15
317.123901367,7039.85
317.422088623,7016.925
317.720245361,7002.475
318.0184021,7031.9
318.316497803,7061.8
318.614654541,7115.45
318.912750244,7168.575
319.21081543,7161.475
319.50894165,7162.0
319.806945801,7186.775
320.104980469,7171.775
320.403045654,7166.425
320.701049805,7156.675
320.999023438,7132.575
321.297027588,7114.375
321.595001221,7097.7
321.892913818,7067.475
322.190887451,7002.575
322.488830566,6956.175
322.786712646,6925.7
323.084625244,6840.925
323.382507324,6821.975
323.680358887,6752.925
323.978210449,6710.7
324.276062012,6669.975
324.573852539,6611.85
324.871643066,6551.475
325.169464111,6536.525
325.467224121,6467.275
325.764984131,6389.175
326.062744141,6384.25
326.360473633,6274.55
326.658203125,6222.95
326.955871582,6150.475
327.253570557,6107.4
327.551239014,6093.8
327.848907471,6009.8
328.146514893,5937.875
328.444152832,5908.3
328.741790771,5850.4
329.039367676,5803.525
329.336914062,5749.025
329.634521484,5704.0
329.932067871,5694.0
330.229553223,5594.375
330.527160645,5555.125
330.824615479,5508.1
331.12210083,5445.725
331.419586182,5333.925
331.717041016,5307.6
332.014465332,5223.925
332.311920166,5206.65
332.609313965,5164.675
332.906707764,5183.225
333.204101562,5136.525
333.501495361,5171.825
333.798828125,5213.1
334.096160889,5222.1
334.39352417,5287.675
334.690795898,5320.225
334.988098145,5354.2
335.285400391,5425.5
335.582641602,5422.15
335.879882812,5474.575
336.177124023,5460.95
336.474334717,5535.725
336.77154541,5506.55
337.068725586,5523.025
337.365905762,5556.85
337.66305542,5555.3
337.960205078,5548.25
338.257324219,5588.55
338.554443359,5583.45
338.8515625,5612.875
339.148590088,5614.075
339.445648193,5616.95
339.742736816,5597.525
340.039764404,5568.9
340.336761475,5561.275
340.63381958,5510.525
340.930755615,5466.3
341.227722168,5416.925
341.524688721,5352.35
341.821624756,5317.175
342.118560791,5339.325
342.415496826,5407.625
342.712402344,5531.85
343.009246826,5643.925
343.306121826,5752.375
343.602966309,5785.825
343.899810791,5865.025
344.196624756,5931.05
344.493438721,5970.175
344.79019165,5965.6
345.086975098,6029.0
345.383758545,6069.025
345.680480957,6074.575
345.977203369,6069.25
346.273956299,6130.55
346.570617676,6108.075
346.86730957,6109.475
347.163970947,6106.45
347.460601807,6139.05
347.757232666,6149.7
348.053894043,6144.725
348.350463867,6079.075
348.647064209,6058.2
348.943634033,6044.375
349.24017334,6054.275
349.536712646,5993.35
349.833251953,6032.4
350.129760742,6010.375
350.426208496,5984.1
350.722747803,5965.075
351.019195557,5977.4
351.315612793,5915.875
351.612060547,5887.5
351.908508301,5855.4
352.204864502,5812.375
352.501281738,5768.15
352.797637939,5696.625
353.093963623,5629.15
353.390319824,5581.975
353.686645508,5525.85
353.982940674,5443.125
354.27923584,5413.525
354.575531006,5397.825
354.871765137,5367.775
355.167999268,5324.7
355.464233398,5337.4
355.760437012,5341.15
356.056640625,5356.35
356.352813721,5366.175
356.648956299,5361.75
356.945129395,5373.3
357.241271973,5366.875
357.537384033,5385.325
357.833496094,5344.475
358.129577637,5319.275
358.425628662,5324.5
358.721679688,5294.95
359.017730713,5275.75
359.313720703,5207.025
359.609710693,5216.725
359.905761719,5158.725
360.201721191,5132.675
360.497650146,5076.225
360.793609619,5065.6
361.089538574,4993.675
361.385437012,4917.6
361.681365967,4876.775
361.977233887,4827.225
362.273071289,4775.325
362.568908691,4692.7
362.864746094,4586.125
363.160552979,4492.55
363.456359863,4342.35
363.752166748,4214.8
364.047912598,4150.575
364.343658447,4109.525
364.639434814,4148.9
364.935119629,4174.675
365.230834961,4240.575
365.526550293,4249.725
365.822174072,4256.675
366.117858887,4286.975
366.413482666,4323.525
366.709075928,4350.15
367.004730225,4258.25
367.300292969,4264.575
367.595855713,4317.95
367.891448975,4213.125
368.186981201,4136.775
368.482513428,4083.45
368.778015137,4061.325
369.073547363,4034.775
369.36895752,4047.85
369.664428711,3968.625
369.95993042,3859.6
370.255310059,3818.075
370.550720215,3808.525
370.846160889,3776.425
371.14151001,3725.5
371.436859131,3721.05
371.73223877,3702.6
372.027557373,3661.475
372.322875977,3640.35
372.618164062,3592.2
372.913482666,3578.7
373.208709717,3559.725
373.503967285,3480.425
373.799194336,3468.95
374.094421387,3460.2
374.389648438,3438.125
374.684844971,3435.85
374.979980469,3461.3
375.275146484,3492.5
375.570281982,3499.6
375.865386963,3515.0
376.160522461,3454.5
376.455596924,3471.075
376.750640869,3555.875
377.045715332,3565.95
377.340759277,3583.375
377.635772705,3649.625
377.93081665,3670.275
378.225769043,3737.875
378.520751953,3771.475
378.815734863,3749.6
379.110656738,3888.1
379.405548096,4029.475
379.700500488,3896.875
379.995391846,3716.025
380.290252686,3755.05
380.585083008,3841.925
380.879974365,3895.5
381.17477417,3820.9
381.469543457,3751.55
381.764404297,3742.525
382.059143066,3776.35
382.353912354,3866.0
382.648651123,3911.3
382.943389893,3927.375
383.238067627,3764.625
383.532775879,3763.25
383.827484131,3707.85
384.12210083,3718.0
384.416778564,3681.475
384.711425781,3580.0
385.006011963,3628.25
385.300628662,3613.175
385.595184326,3652.825
385.88973999,3736.5
386.184295654,3853.475
386.478820801,3898.525
386.77331543,3996.025
387.067840576,4088.15
387.362335205,4175.075
387.656768799,4214.55
387.951202393,4273.825
388.245635986,4322.525
388.540039062,4384.9
388.834472656,4450.55
389.128875732,4355.175
389.423187256,4157.525
389.717559814,4118.125
390.011871338,4215.3
390.306182861,4238.825
390.600463867,4236.625
390.894775391,4317.925
391.189025879,4344.45
391.48324585,4330.85
391.777526855,4372.7
392.071685791,4558.625
392.365875244,4656.05
392.660064697,4711.65
392.95425415,5020.65
393.248382568,4983.375
393.542510986,4584.425
393.836608887,4437.15
394.130706787,4427.125
394.424804688,4381.325
394.71887207,4478.9
395.012878418,4462.7
395.306915283,4366.025
395.600921631,4310.75
395.894927979,4277.475
396.188903809,4307.125
396.482879639,4339.875
396.776794434,4511.9
397.070739746,4475.25
397.364654541,4489.625
397.658538818,4819.875
397.952423096,4850.625
398.246307373,4825.925
398.540100098,5288.425
398.833953857,5204.05
399.127746582,4773.85
399.421508789,4759.725
399.715301514,4700.325
400.009063721,4633.575
400.30279541,4509.6
400.596496582,4410.85
400.890258789,4599.2
401.183929443,4648.45
401.47756958,4556.475
401.771240234,4346.25
402.064880371,4356.75
402.35848999,4395.525
402.652130127,4295.05
402.945678711,4379.825
403.239257812,4317.325
403.532775879,4276.325
403.82635498,4319.4
404.119842529,4250.525
404.413360596,4239.725
404.706848145,4285.4
405.000274658,4221.2
405.293762207,4291.525
405.587188721,4339.275
405.880584717,4197.35
406.17401123,4025.275
406.467407227,3843.625
406.760742188,3862.725
407.054107666,3894.325
407.347442627,3815.875
407.640716553,3814.5
407.934051514,3866.025
408.227325439,3925.4
408.520568848,4113.95
408.813842773,4192.15
409.107086182,4018.95
409.400238037,3988.475
409.693450928,3912.6
409.986633301,4012.775
410.279754639,3931.725
410.572875977,3682.3
410.86605835,3607.9
411.159118652,3636.35
411.452209473,3641.075
411.745330811,3508.65
412.038360596,3459.475
412.331390381,3492.6
412.624420166,3515.1
412.917388916,3433.8
413.210388184,3274.475
413.503387451,3261.5
413.796295166,3165.1
414.089233398,3012.375
414.382141113,2936.1
414.675048828,2926.475
414.967926025,2952.15
415.260803223,2902.675
415.55368042,2917.7
415.846466064,2897.875
416.139282227,2958.85
416.432098389,3063.475
416.724853516,3058.15
417.017608643,3013.45
417.31036377,3028.975
417.603088379,3132.075
417.895782471,3111.325
418.188476562,3093.75
418.481140137,3149.375
418.773803711,3184.925
419.066436768,3170.5
419.359039307,3250.825
419.651641846,3239.725
419.944244385,3239.1
420.236816406,3212.65
420.529327393,3398.45
420.821899414,3444.75
421.114379883,3391.925
421.406860352,3630.925
421.699371338,3813.425
421.991821289,3789.025
422.284240723,3609.575
422.576721191,3480.975
422.869110107,3378.275
423.161468506,3336.075
423.453857422,3353.2
423.74621582,3237.7
424.038543701,3130.025
424.330871582,3093.175
424.623168945,3043.675
424.915435791,3157.4
425.207702637,3131.7
425.499969482,3091.25
425.792205811,3021.75
426.084411621,2810.7
426.376617432,2882.9
426.668762207,2949.925
426.9609375,2845.425
427.253082275,2938.1
427.545196533,3306.075
427.837310791,3048.975
428.129425049,2814.825
428.421447754,2982.35
428.713531494,2978.55
429.005554199,2991.7
429.297576904,2991.65
429.589599609,3391.9
429.881561279,3665.675
430.173522949,3455.375
430.465484619,3419.85
430.757415771,3482.325
431.049316406,3287.375
431.341186523,3078.775
431.633117676,2986.475
431.924957275,2716.175
432.21673584,2616.0
432.508636475,2746.25
432.800415039,2763.3
433.092163086,2658.225
433.383972168,2660.025
433.675689697,3290.35
433.967437744,3716.85
434.259155273,2865.7
434.550872803,2596.175
434.842498779,2645.425
435.134185791,2766.075
435.425842285,2779.875
435.717437744,2692.75
436.009063721,2539.55
436.30065918,2647.275
436.592224121,2963.025
436.883758545,2784.95
437.175323486,2551.9
437.466827393,2523.5
437.758331299,2545.175
438.049804688,2553.0
438.341247559,2620.6
438.63269043,2686.275
438.924163818,2691.725
439.215515137,2637.975
439.50692749,2547.825
439.798309326,2560.425
440.089660645,2568.55
440.380981445,2489.425
440.672332764,2481.325
440.963623047,2725.525
441.254882812,3119.825
441.546173096,3281.125
441.837402344,3049.35
442.128631592,2912.025
442.41986084,2887.825
442.711029053,2763.35
443.002197266,2821.125
443.293365479,2986.15
443.584503174,3121.175
443.875610352,3081.775
444.166717529,2855.675
444.457794189,2890.9
444.748840332,2904.4
445.039916992,2846.85
445.330932617,2941.275
445.621948242,2793.275
445.912963867,2617.15
446.203918457,2823.8
446.494812012,3038.375
446.785827637,2851.2
447.076721191,2688.35
447.367584229,2665.025
447.658447266,2644.65
447.949371338,2691.05
448.24017334,2585.525
448.530975342,2523.4
448.821838379,2675.0
449.112579346,2746.4
449.40335083,2674.3
449.694152832,2713.025
449.984863281,2718.325
450.27557373,2663.1
450.56628418,2710.525
450.856933594,2716.375
451.147583008,2585.375
451.438262939,2476.575
451.728881836,2673.725
452.019470215,2745.425
452.310089111,2573.55
452.600646973,2587.175
452.891174316,2637.9
453.181732178,2485.2
453.472229004,2368.2
453.762695312,2460.55
454.053222656,2493.4
454.343658447,2380.8
454.634063721,2327.45
454.924530029,2472.85
455.214935303,2608.25
455.505279541,2663.375
455.795715332,2543.15
456.086029053,2364.325
456.376312256,2346.275
456.666687012,2385.2
456.956939697,2468.2
457.247192383,2462.9
457.537445068,2526.775
457.827728271,2711.65
458.117919922,2624.6
458.408081055,2579.0
458.698303223,2723.975
458.988433838,2672.35
459.278564453,2500.775
459.568725586,2756.05
459.858825684,2851.375
460.148864746,2581.7
460.438995361,2550.6
460.729034424,2602.45
461.019042969,2624.4
461.309082031,2784.5
461.599060059,2679.55
461.889007568,2261.475
462.179016113,2109.25
462.468933105,2317.325
462.75881958,2415.4
463.048736572,2195.4
463.338592529,2429.025
463.628448486,2736.125
463.918365479,2483.675
464.2081604,2620.7
464.497924805,2601.45
464.787780762,2704.925
465.077514648,2963.225
465.367218018,2634.5
465.657012939,2810.875
465.946685791,3175.475
466.236358643,2845.625
466.526092529,2357.025
466.815734863,2355.75
467.105316162,2275.925
467.394927979,2321.5
467.684570312,2194.0
467.974121094,2273.3
468.263671875,2379.225
468.553222656,2173.85
468.842773438,2074.075
469.132232666,1993.825
469.42175293,2019.35
469.711212158,1990.65
470.000640869,1880.075
470.290100098,1933.175
470.579498291,1956.125
470.868835449,1961.225
471.158294678,1919.5
471.447601318,1904.225
471.736907959,1973.2
472.026275635,2040.8
472.315551758,2020.65
472.604797363,1999.325
472.894104004,2118.65
473.183319092,2225.625
473.47253418,2198.45
473.761779785,2196.425
474.05090332,2141.2
474.340087891,2102.525
474.629241943,2025.575
474.918365479,2191.5
475.207427979,2427.725
475.496551514,2446.45
475.785614014,2210.35
476.074645996,2037.925
476.363708496,2123.7
476.652679443,2237.275
476.941650391,2095.125
477.230682373,1951.75
477.519622803,1959.725
477.808502197,2097.4
478.097412109,2330.075
478.386352539,2274.65
478.675201416,2040.825
478.964050293,1944.825
479.25289917,2120.65
479.541717529,2155.675
479.830474854,2032.725
480.11932373,2340.525
480.408050537,2489.325
480.696777344,2156.175
480.985534668,2036.25
481.274200439,2115.5
481.562866211,2328.55
481.851593018,2351.775
482.140197754,2299.25
482.428833008,2162.65
482.717468262,1969.3
483.006011963,2000.925
483.294586182,2103.25
483.5831604,2137.15
483.871673584,2022.7
484.16015625,2155.375
484.448699951,2362.575
484.7371521,2401.725
485.02557373,2403.575
485.314025879,2160.0
485.602416992,3344.9
485.890777588,11954.7
486.179199219,10636.55
486.467559814,2845.525
486.755859375,2064.5
487.044219971,2403.6
487.332519531,2572.275
487.620758057,2210.175
487.908966064,1983.675
488.197265625,1803.225
488.485473633,1710.5
488.773651123,1815.25
489.061859131,1806.425
489.350006104,1765.375
489.638122559,1710.6
489.926300049,1737.45
490.214355469,1684.575
490.502441406,1650.725
490.790527344,1576.875
491.078552246,1760.825
491.366546631,1757.4
491.654602051,1536.375
491.942565918,1601.425
492.230499268,1644.725
492.518493652,1615.35
492.806396484,1647.025
493.094268799,1560.8
493.382202148,1607.15
493.670074463,1708.4
493.957885742,1578.875
494.245727539,1561.175
494.533508301,1706.3
494.821289062,1614.275
495.109100342,1473.825
495.396850586,1427.35
495.684539795,1386.575
495.972290039,1572.0
496.25994873,1878.725
496.547607422,1886.5
496.835296631,1720.475
497.122894287,1448.925
497.410522461,1376.8
497.6980896,1371.225
497.985687256,1336.3
498.273223877,1432.0
498.560760498,1489.425
498.848266602,1503.375
499.135772705,1483.4
499.423217773,1514.775
499.710693359,1605.65
499.998138428,1550.975
500.285522461,1417.025
500.572937012,1339.075
500.860290527,1393.4
501.147644043,1479.55
501.434997559,1682.5
501.722290039,1566.0
502.00958252,1353.5
502.296875,1584.025
502.584106445,1573.875
502.871337891,1413.475
503.158599854,1489.425
503.445770264,1548.75
503.732910156,1524.1
504.020141602,1369.9
504.307220459,1352.875
504.594329834,1375.2
504.881469727,1323.15
505.168518066,1387.475
505.455535889,1441.6
505.742614746,1335.65
506.029632568,1284.625
506.316589355,1432.125
506.603637695,1516.1
506.890563965,1351.925
507.177459717,1204.075
507.464385986,1126.825
507.751312256,1328.625
508.038146973,1395.4
508.325012207,1267.0
508.611877441,1318.875
508.898681641,1330.875
509.185424805,1199.425
509.472259521,1160.15
509.759002686,1231.075
510.045715332,1260.975
510.332458496,1210.725
510.619140625,1255.425
510.905761719,1185.9
511.192504883,1175.25
511.479095459,1224.7
511.765686035,1181.7
512.052307129,1105.4
512.338928223,1060.45
512.625427246,1110.425
512.91204834,1154.35
513.198486328,1132.3
513.484985352,1106.15
513.77142334,1044.075
514.057922363,1086.65
514.344299316,1081.425
514.63079834,1048.775
514.917175293,1030.5
515.203552246,953.675
515.489868164,930.475
515.776245117,1038.975
516.0625,1074.8
516.348815918,990.6
516.635070801,1030.225
516.921325684,1083.4
517.207580566,1019.125
517.493774414,934.225
517.779968262,943.975
518.066101074,975.8
518.352294922,943.85
518.638366699,946.95
518.924499512,1018.175
519.210632324,1073.6
519.496643066,1043.5
519.782714844,956.775
520.068786621,932.325
520.354736328,894.85
520.640686035,858.425
520.926757812,897.45
521.212646484,969.35
521.498535156,975.45
521.784484863,929.6
522.0703125,873.575
522.356262207,880.725
522.642089844,941.075
522.927856445,950.1
523.213684082,935.05
523.499511719,919.575
523.78527832,961.75
524.070983887,1010.875
524.356750488,996.125
524.64239502,953.325
524.928039551,938.825
525.213806152,964.275
525.499389648,947.6
525.784973145,973.3
526.070617676,1005.9
526.356140137,983.425
526.641723633,984.05
526.927307129,1048.1
527.212768555,1045.925
527.498291016,1029.35
527.783752441,1024.125
528.069213867,1008.1
528.354675293,1029.025
528.640014648,1173.575
528.925476074,1228.625
529.21081543,1160.175
529.496154785,1139.075
529.781555176,1107.05
530.066833496,1122.75
530.352050781,1139.325
530.637390137,1128.35
530.922607422,1134.475
531.207824707,1130.7
531.493041992,1111.8
531.778198242,1160.475
532.063354492,1159.075
532.348571777,1110.275
532.633666992,1123.575
532.918762207,1190.1
533.203857422,1250.3
533.488891602,1278.15
533.773925781,1240.15
534.059020996,1211.875
534.343933105,1235.325
534.628967285,1217.775
534.91394043,1229.75
535.198852539,1244.525
535.483703613,1222.85
535.768676758,1161.3
536.053527832,1172.075
536.338317871,1145.975
536.62322998,1090.6
536.90802002,1062.85
537.192810059,1094.175
537.477539062,1148.025
537.762329102,1188.45
538.047058105,1213.85
538.331726074,1245.775
538.616455078,1237.225
538.901123047,1213.35
539.18572998,1257.075
539.470397949,1265.175
539.755004883,1252.525
540.039550781,1215.65
540.32409668,1175.425
540.608703613,1211.425
540.893188477,1294.525
541.17767334,1308.825
541.462158203,1312.1
541.746643066,1265.125
542.031066895,1309.45
542.315429688,1338.85
542.59979248,1336.425
542.884216309,1319.75
543.168579102,1305.825
543.452941895,1313.6
543.737243652,1363.675
544.021484375,1399.6
544.305725098,1409.525
544.590026855,1375.15
544.874267578,1391.175
545.158447266,1443.8
545.442626953,1384.95
545.726806641,1285.85
546.010925293,1312.625
546.29510498,1334.125
546.579162598,1324.5
546.863220215,1365.6
547.147277832,1418.675
547.431335449,1479.55
547.715332031,1532.475
547.999328613,1630.4
548.283325195,1642.775
548.567260742,1522.15
548.851135254,1495.6
549.135070801,1466.7
549.419006348,1391.525
549.702819824,1469.325
549.986755371,1530.525
550.270507812,1505.375
550.554321289,1540.675
550.83807373,1553.075
551.121826172,1508.525
551.405517578,1530.975
551.689331055,1625.9
551.973022461,1816.675
552.256652832,1874.775
552.540344238,1782.725
552.823974609,1770.4
553.107543945,1759.625
553.391174316,1805.8
553.674743652,1837.55
553.958251953,1850.275
554.241821289,1845.125
554.525268555,1812.825
554.808776855,1808.175
555.092285156,1968.9
555.375671387,2044.275
555.659057617,2033.575
555.942504883,2058.825
556.225891113,2089.975
556.509216309,2064.6
556.792541504,1990.45
557.075866699,2040.9
557.359130859,2072.65
557.64239502,2077.6
557.92565918,2144.425
558.208862305,2131.5
558.49206543,2072.6
558.77532959,2079.225
559.058410645,2116.725
559.341552734,2111.55
559.624694824,2163.625
559.907775879,2232.45
560.190856934,2327.2
560.473937988,2329.625
560.756896973,2359.475
561.039978027,2387.8
561.322937012,2343.225
561.605895996,2332.05
561.88885498,2327.55
562.171813965,2320.475
562.454650879,2310.15
562.737548828,2332.175
563.020446777,2392.275
563.303283691,2418.075
563.58605957,2440.7
563.868896484,2467.2
564.151672363,2500.575
564.434387207,2525.2
564.717163086,2504.45
564.99987793,2546.15
565.282531738,2594.825
565.565185547,2540.6
565.847839355,2544.95
566.130432129,2665.925
566.413085938,2635.0
566.695678711,2650.45
566.978149414,2742.275
567.260681152,2873.75
567.543273926,2942.65
567.825744629,2855.375
568.108154297,2878.35
568.390686035,3002.95
568.673095703,3105.85
568.955505371,3139.825
569.237854004,3171.8
569.520202637,3398.775
569.802490234,3602.625
570.084838867,3576.425
570.367126465,3413.15
570.649414062,3420.35
570.93170166,3765.35
571.213928223,3818.175
571.496154785,3611.075
571.778381348,3795.25
572.06048584,4007.2
572.342590332,3626.65
572.624755859,3325.1
572.906860352,3392.0
573.188903809,3984.65
573.470947266,4199.05
573.752990723,3986.15
574.03503418,4066.3
574.317016602,4420.45
574.598937988,4238.7
574.88092041,4156.225
575.162841797,4305.025
575.444763184,3969.1
575.726623535,3760.375
576.008483887,3791.35
576.290344238,4153.125
576.572143555,4340.975
576.853881836,4389.725
577.135681152,4302.475
577.417419434,4351.175
577.699157715,5115.025
577.980895996,5267.1
578.262573242,4709.225
578.544128418,4268.275
578.825866699,4224.45
579.107421875,3965.85
579.388977051,4123.2
579.670593262,4457.6
579.952148438,4342.4
580.233642578,4427.9
580.515197754,4528.4
580.796691895,4264.0
581.078125,4424.175
581.359619141,5777.175
581.640991211,5845.95
581.922363281,5047.7
582.203796387,5112.225
582.485107422,4783.475
582.766418457,4418.1
583.047790527,4300.925
583.329040527,4187.25
583.610290527,4085.3
583.891540527,4194.55
584.172790527,4463.225
584.453918457,4475.75
584.735107422,4534.5
585.016235352,4944.65
585.297363281,4902.525
585.578552246,4715.125
585.859619141,4685.4
586.140625,4494.5
586.421630859,4376.65
586.702697754,4408.1
586.983642578,4605.7
587.264648438,4771.975
587.545654297,4729.825
587.826477051,4671.45
588.107421875,4518.975
588.388305664,4533.45
588.669189453,4624.775
588.950012207,4495.75
589.230834961,4412.95
589.511657715,4489.925
589.792358398,4574.3
590.073120117,4597.225
590.353881836,4565.925
590.63458252,4589.95
590.915283203,4550.35
591.195922852,4554.975
591.4765625,4592.375
591.757202148,4624.925
592.037780762,4604.55
592.31829834,4611.175
592.598937988,4818.875
592.879394531,4974.05
593.159912109,4889.1
593.440429688,4838.575
593.720825195,4834.125
594.001281738,4802.45
594.281677246,4748.65
594.562072754,4753.425
594.842407227,4849.475
595.122802734,4905.125
595.403137207,4878.9
595.683410645,4851.4
595.963623047,4844.75
596.243896484,4838.075
596.524169922,4820.05
596.804382324,4834.75
597.084533691,4859.875
597.364746094,4884.85
597.644836426,4909.675
597.924987793,4896.125
598.205078125,4897.975
598.485107422,4906.2
598.765197754,5006.95
599.045227051,5060.4
599.325195312,4965.575
599.605224609,4942.6
599.885192871,4998.625
600.165100098,5015.3
600.445007324,4992.125
600.724914551,5000.1
601.004760742,4994.375
601.284667969,5047.875
601.56451416,5008.075
601.844238281,5009.375
602.124084473,4990.625
602.403808594,5013.825
602.683532715,5032.05
602.963256836,5032.25
603.242919922,5074.35
603.522583008,5131.35
603.802246094,5095.625
604.081848145,5066.05
604.36138916,5041.075
604.641052246,5078.975
604.920532227,5042.675
605.200073242,5079.975
605.479614258,5116.875
605.759094238,5145.55
606.038574219,5149.525
606.317932129,5083.525
606.597412109,5096.775
606.87677002,5103.025
607.15612793,5130.575
607.435546875,5139.4
607.714782715,5152.525
607.99407959,5115.25
608.273376465,5102.35
608.552612305,5129.55
608.831848145,5154.875
609.111083984,5135.425
609.390258789,5105.375
609.669433594,5118.7
609.948608398,5178.875
610.227722168,5172.6
610.506713867,5102.975
610.785888672,5130.65
611.064880371,5113.775
611.34387207,5138.85
611.622924805,5164.9
611.901916504,5141.025
612.180847168,5113.95
612.459777832,5102.95
612.738647461,5094.175
613.01751709,5079.75
613.296447754,5039.4
613.575317383,5023.975
613.854064941,4951.3
614.132873535,4882.025
614.411621094,4836.0
614.690368652,4815.825
614.969177246,4764.675
615.247802734,4690.375
615.526489258,4671.825
615.805175781,4579.075
616.08380127,4451.05
616.362365723,4384.025
616.640991211,4335.325
616.919555664,4285.475
617.198059082,4398.725
617.4765625,4654.625
617.755126953,4798.0
618.033569336,4829.45
618.311950684,4838.2
618.590454102,4800.2
618.868774414,4808.55
619.147155762,4808.5
619.425598145,4793.7
619.703857422,4814.05
619.982177734,4818.65
620.260498047,4795.825
620.538757324,4788.325
620.816955566,4778.425
621.095214844,4732.45
621.373413086,4740.425
621.651550293,4800.15
621.929748535,4825.35
622.207824707,4815.425
622.485900879,4820.75
622.764038086,4819.75
623.042053223,4853.475
623.320007324,4871.1
623.598083496,4855.6
623.876037598,4847.825
624.153991699,4873.475
624.432006836,4899.375
624.709838867,4895.4
624.987731934,4884.45
625.265563965,4881.0
625.543395996,4905.9
625.821228027,4968.15
626.098999023,4940.85
626.376831055,5011.425
626.654541016,5005.275
626.932250977,5035.225
627.209960938,5102.725
627.487670898,5100.7
627.765319824,5102.425
628.04296875,5101.65
628.320495605,5126.1
628.598083496,5114.55
628.875671387,5160.25
629.153259277,5205.9
629.430725098,5244.1
629.708251953,5237.85
629.985656738,5249.9
630.263122559,5303.275
630.540588379,5318.575
630.817932129,5348.425
631.095275879,5358.275
631.372680664,5415.525
631.649963379,5464.35
631.927246094,5516.45
632.204589844,5541.05
632.481811523,5580.025
632.759033203,5663.725
633.036254883,5676.025
633.313415527,5732.95
633.590576172,5812.025
633.867736816,5907.85
634.144836426,5962.225
634.421875,5990.1
634.698913574,6062.075
634.976013184,6093.15
635.252990723,6173.3
635.529968262,6182.85
635.807006836,6264.75
636.08392334,6238.45
636.360839844,6178.025
636.637756348,6092.925
636.914611816,6062.575
637.191467285,6038.2
637.468261719,6128.2
637.745056152,6087.075
638.021789551,6091.025
638.298583984,6120.125
638.575317383,6139.675
638.851989746,6148.925
639.12878418,6155.225
639.405395508,6118.675
639.682006836,6184.8
639.958618164,6192.825
640.235229492,6147.725
640.511779785,6212.725
640.788330078,6170.175
641.064880371,6183.125
641.341308594,6163.65
641.617797852,6176.575
641.894226074,6190.05
642.170654297,6216.9
642.44708252,6212.475
642.723388672,6190.175
642.999755859,6158.025
643.276123047,6180.125
643.552429199,6169.025
643.828674316,6194.9
644.104919434,6171.925
644.381164551,6151.275
644.657348633,6150.95
644.933532715,6106.75
645.209716797,6131.6
645.485839844,6156.5
645.761901855,6143.475
646.038024902,6124.85
646.314086914,6161.25
646.590087891,6124.575
646.866149902,6186.0
647.142150879,6130.5
647.41809082,6115.075
647.694030762,6122.75
647.969970703,6097.875
648.245788574,6098.8
648.521728516,6110.4
648.797546387,6102.575
649.073303223,6123.425
649.349182129,6080.9
649.624938965,6088.1
649.900634766,6090.075
650.176391602,6072.25
650.452087402,6087.2
650.727783203,6076.75
651.003479004,6090.825
651.279052734,6078.575
651.554626465,6071.7
651.83026123,6048.725
652.105773926,6059.3
652.381286621,6022.4
652.656860352,6052.1
652.932312012,6070.3
653.207763672,6064.85
653.483215332,6079.9
653.758605957,6082.25
654.033935547,6078.225
654.309326172,6072.575
654.584716797,6084.3
654.859985352,6064.65
655.135253906,6101.225
655.410583496,6139.15
655.685791016,7035.725
655.9609375,11005.9
656.236206055,10752.1
656.511291504,7102.2
656.786437988,6248.675
657.061645508,6140.775
657.336669922,6124.625
657.611694336,6176.1
657.886779785,6184.35
658.161804199,6193.975
658.436828613,6173.25
658.711791992,6196.725
658.986755371,6197.9
659.261657715,6212.5
659.536621094,6223.05
659.811401367,6215.45
660.086303711,6236.325
660.36114502,6246.325
660.635864258,6233.95
660.910644531,6266.125
661.185424805,6263.8
661.460205078,6292.8
661.734863281,6282.525
662.009521484,6267.575
662.284179688,6277.0
662.558776855,6308.875
662.833435059,6325.625
663.108032227,6347.425
663.382568359,6320.875
663.657043457,6376.525
663.93157959,6384.975
664.206054688,6351.25
664.48046875,6407.35
664.755004883,6409.025
665.02935791,6426.075
665.303710938,6445.0
665.578125,6463.625
665.852416992,6448.75
666.126708984,6440.775
666.401062012,6440.075
666.675292969,6497.05
666.949462891,6500.15
667.223754883,6498.675
667.497924805,6537.3
667.772094727,6541.75
668.046264648,6490.225
668.3203125,6560.15
668.594421387,6581.5
668.868469238,6573.05
669.14251709,6575.025
669.416503906,6619.0
669.690551758,6608.8
669.964477539,6617.65
670.23840332,6642.675
670.512329102,6634.175
670.786254883,6595.6
671.060058594,6678.675
671.333984375,6686.9
671.607788086,6690.25
671.881530762,6690.525
672.155334473,6692.575
672.429077148,6710.9
672.702758789,6721.4
672.97644043,6707.825
673.25012207,6708.1
673.523742676,6687.3
673.797302246,6712.75
674.070922852,6744.4
674.344482422,6752.5
674.618041992,6757.75
674.891601562,6757.925
675.165100098,6741.475
675.438476562,6750.3
675.711975098,6774.3
675.985412598,6737.075
676.258789062,6740.825
676.532165527,6767.475
676.805480957,6762.25
677.078796387,6790.2
677.352111816,6791.125
677.625366211,6776.1
677.898620605,6789.9
678.171875,6828.225
678.445007324,6813.45
678.718200684,6839.625
678.991394043,6812.3
679.264404297,6808.75
679.537536621,6859.3
679.81060791,6861.975
680.083679199,6849.4
680.356689453,6858.4
680.629699707,6854.5
680.902648926,6838.675
681.175598145,6889.475
681.448547363,6901.35
681.721435547,6847.475
681.99420166,6870.45
682.267150879,6851.325
682.539916992,6901.825
682.812744141,6872.675
683.085510254,6856.825
683.358215332,6881.9
683.63092041,6869.15
683.903625488,6862.95
684.176330566,6851.7
684.448913574,6831.0
684.721557617,6791.525
684.99420166,6866.425
685.266662598,6832.5
685.539245605,6835.625
685.811767578,6899.875
686.084289551,6892.0
686.356689453,6892.15
686.629150391,6915.625
686.901550293,6939.675
687.17401123,6922.525
687.446350098,6944.6
687.718688965,6950.15
687.990966797,6986.775
688.263305664,6993.575
688.535522461,6955.6
688.807739258,6950.575
689.079956055,6994.8
689.352172852,7007.825
689.624328613,6995.275
689.896484375,6999.975
690.168518066,6997.5
690.440612793,7012.8
690.71270752,7046.075
690.984741211,7017.225
691.256713867,7047.1
691.528747559,7013.05
691.800720215,7041.7
692.072631836,7053.3
692.344543457,7077.625
692.616394043,7073.55
692.888244629,7060.175
693.160095215,7078.675
693.431945801,7106.975
693.703674316,7074.625
693.975463867,7080.85
694.247131348,7074.875
694.518859863,7081.55
694.790588379,7091.9
695.062255859,7088.975
695.33380127,7070.125
695.60546875,7068.85
695.87701416,7091.875
696.148498535,7066.275
696.42010498,7127.825
696.691589355,7109.75
696.96307373,7115.075
697.234558105,7147.65
697.50592041,7117.125
697.777282715,7121.625
698.048706055,7123.5
698.320068359,7167.275
698.591308594,7127.05
698.862670898,7113.725
699.133972168,7160.3
699.405151367,7133.125
699.676391602,7170.2
699.947570801,7115.075
700.21875,7129.55
700.489868164,7125.275
700.761047363,7120.7
701.032104492,7152.65
701.303100586,7086.525
701.57421875,7151.4
701.845214844,7120.4
702.116149902,7162.65
702.387207031,7141.875
702.65814209,7131.425
702.928955078,7156.6
703.199951172,7117.675
703.47076416,7090.525
703.741577148,7081.15
704.012451172,7107.9
704.28314209,7099.8
704.553955078,7076.225
704.824707031,7105.625
705.095397949,7129.375
705.366027832,7101.625
705.63671875,7112.025
705.907348633,7083.325
706.17791748,7073.025
706.448486328,7067.225
706.719055176,7082.425
706.989562988,7086.45
707.260131836,7094.7
707.530517578,7097.65
707.800964355,7079.9
708.071411133,7033.225
708.341796875,7037.975
708.612182617,7027.225
708.882446289,7010.15
709.152893066,7008.95
709.423156738,7016.6
709.693359375,6961.5
709.963623047,6975.675
710.233825684,7018.975
710.503967285,6953.525
710.774169922,6971.325
711.044311523,6963.725
711.31439209,6948.35
711.584533691,6958.8
711.854553223,6939.7
712.124572754,6938.95
712.39465332,6898.8
712.664611816,6906.0
712.934509277,6920.525
713.204467773,6884.475
713.474365234,6896.925
713.74420166,6892.55
714.014099121,6921.425
714.283874512,6891.125
714.553710938,6893.275
714.823486328,6892.225
715.093200684,6835.325
715.362915039,6858.225
715.632629395,6841.45
715.902282715,6810.875
716.171875,6789.725
716.441589355,6784.475
716.711181641,6745.7
716.980712891,6748.15
717.250244141,6748.575
717.519775391,6739.875
717.78918457,6728.525
718.058654785,6767.45
718.328125,6757.75
718.597473145,6712.4
718.866882324,6721.125
719.136230469,6717.725
719.405578613,6720.625
719.674865723,6732.025
719.944152832,6682.35
720.213439941,6643.2
720.48260498,6672.825
720.75177002,6652.55
721.020996094,6655.6
721.290100098,6633.2
721.559204102,6610.025
721.828308105,6618.8
722.097351074,6617.35
722.366455078,6600.025
722.635437012,6569.875
722.904418945,6539.775
723.173400879,6544.3
723.442321777,6548.375
723.711181641,6507.425
723.980102539,6532.825
724.248962402,6513.575
724.51776123,6492.325
724.786560059,6504.625
725.055358887,6485.575
725.324035645,6456.975
725.592834473,6445.8
725.86151123,6422.725
726.130187988,6412.075
726.398803711,6396.1
726.667419434,6399.75
726.935974121,6370.4
727.204528809,6323.775
727.473083496,6313.725
727.741638184,6284.2
728.010070801,6263.85
728.278564453,6239.4
728.546936035,6236.375
728.815368652,6173.725
729.08380127,6119.725
729.352111816,6074.65
729.620361328,6037.3
729.88873291,6051.175
730.156982422,6086.3
730.425231934,6056.4
730.693481445,6073.45
730.961669922,6092.85
731.229797363,6089.95
731.49798584,6118.675
731.766113281,6120.7
732.034118652,6153.75
732.302246094,6169.4
732.570251465,6189.725
732.838256836,6211.125
733.106262207,6230.625
733.374145508,6249.775
733.642089844,6258.85
733.909973145,6293.125
734.177856445,6331.975
734.445678711,6388.575
734.713562012,6426.275
734.981323242,6431.975
735.249084473,6441.325
735.516845703,6542.575
735.784545898,6592.3
736.052185059,6587.8
736.319885254,6649.9
736.587524414,6670.425
736.855102539,6705.7
737.122619629,6772.75
737.390197754,6772.275
737.657714844,6846.65
737.925170898,6895.3
738.192749023,6909.675
738.460144043,6968.025
738.727539062,6990.925
738.994995117,7041.975
739.262329102,7086.45
739.529663086,7130.825
739.79699707,7142.8
740.06427002,7194.95
740.331481934,7235.675
740.598754883,7242.85
740.865905762,7249.5
741.133056641,7331.6
741.40032959,7357.35
741.667358398,7387.025
741.934448242,7378.625
742.201599121,7422.875
742.468566895,7429.025
742.735534668,7476.3
743.002563477,7483.1
743.26953125,7475.65
743.536437988,7500.0
743.803405762,7567.65
744.0703125,7512.15
744.337097168,7561.925
744.604003906,7515.325
744.870727539,7557.95
745.137512207,7546.625
745.40423584,7570.5
745.670959473,7528.075
745.93762207,7540.4
746.204284668,7527.95
746.470947266,7498.8
746.737548828,7502.55
747.004089355,7530.725
747.270751953,7526.3
747.53717041,7519.725
747.803710938,7493.025
748.070251465,7467.575
748.336608887,7458.4
748.603027344,7424.725
748.869445801,7420.175
749.135803223,7415.575
749.402099609,7438.1
749.668457031,7413.5
749.934753418,7357.9
750.20098877,7331.725
750.467224121,7372.525
750.733459473,7304.05
750.999572754,7301.8
751.26574707,7241.875
751.531860352,7252.775
751.797912598,7217.875
752.064025879,7189.75
752.330078125,7201.325
752.596069336,7141.5
752.862060547,7131.125
753.127990723,7097.8
753.393920898,7061.725
753.659912109,7025.35
753.925720215,7068.125
754.19152832,7028.275
754.457397461,6950.0
754.723144531,6946.75
754.988952637,6906.625
755.254699707,6917.775
755.520385742,6921.775
755.786071777,6909.475
756.051696777,6871.175
756.317382812,6829.775
756.582946777,6780.15
756.848510742,6805.925
757.114074707,6752.8
757.379577637,6753.725
757.645080566,6795.675
757.910583496,6758.825
758.175964355,6699.7
758.441345215,6674.025
758.706848145,6590.775
758.972106934,6585.425
759.237426758,6607.375
759.502807617,6606.425
759.768005371,6617.975
760.03326416,6541.55
760.298522949,6503.25
760.563659668,6509.775
760.828857422,6513.6
761.093994141,6526.675
761.359130859,6460.075
761.624206543,6423.2
761.889282227,6418.5
762.15423584,6393.6
762.419250488,6355.675
762.684265137,6346.25
762.949157715,6302.275
763.214050293,6285.325
763.479003906,6276.35
763.743835449,6255.575
764.008666992,6230.075
764.2734375,6230.15
764.538208008,6236.5
764.802978516,6248.625
765.067687988,6213.95
765.332397461,6214.95
765.597045898,6194.15
765.861694336,6168.425
766.126342773,6125.475
766.390930176,6117.1
766.655395508,6086.25
766.920043945,6076.875
767.184509277,6068.3
767.448974609,6065.45
767.713439941,6045.075
767.977783203,6025.475
768.2421875,6022.725
768.506591797,5986.05
768.770874023,6049.925
769.03515625,5983.95
769.299499512,5980.6
769.563720703,5987.45
769.827941895,5936.2
770.092163086,5937.3
770.356323242,5924.975
770.620483398,5943.5
770.88458252,5936.85
771.148681641,5933.9
771.412719727,5919.225
771.676757812,5914.675
771.940734863,5861.375
772.204711914,5892.4
772.468688965,5852.675
772.73260498,5845.4
772.996459961,5853.5
773.260314941,5202.55
773.524169922,705.55
773.787963867,142.225
774.051696777,123.025
774.315551758,119.925
774.579223633,121.15
774.842895508,119.275
775.106567383,120.85
775.370239258,118.275
775.633789062,123.45
775.897399902,128.5
776.160949707,119.625
776.424499512,119.3
776.687988281,121.7
776.951477051,126.425
777.214904785,119.675
777.47833252,119.925
