191.299911499,98.4
191.603515625,103.6
191.907119751,94.675
192.210693359,103.075
192.514251709,95.675
192.817810059,101.675
193.121368408,101.825
193.42489624,105.85
193.728408813,97.6
194.031936646,97.975
194.33543396,91.65
194.638916016,112.325
194.94241333,95.85
195.245880127,93.625
195.549331665,94.575
195.852767944,101.125
196.156204224,193.9
196.459625244,187.9
196.763015747,186.525
197.066436768,197.05
197.369812012,187.85
197.673187256,191.725
197.9765625,185.875
198.279922485,186.975
198.583251953,182.275
198.886581421,189.425
199.18989563,193.625
199.493209839,186.05
199.79649353,180.4
200.09979248,189.525
200.403076172,184.525
200.706314087,187.8
201.009567261,185.0
201.312820435,187.225
201.616027832,178.475
201.919235229,179.325
202.222457886,182.65
202.525634766,185.725
202.828826904,176.325
203.132003784,174.175
203.435150146,180.25
203.738296509,176.0
204.041412354,178.2
204.344558716,184.3
204.647659302,184.575
204.950759888,185.075
205.253845215,182.05
205.556930542,179.25
205.859985352,178.45
206.163024902,183.025
206.466079712,182.725
206.769104004,191.65
207.072113037,184.125
207.375137329,183.0
207.678131104,185.025
207.981109619,184.5
208.284088135,178.875
208.587036133,186.425
208.889984131,187.075
209.19291687,188.05
209.495849609,187.9
209.798751831,187.975
210.101654053,190.975
210.404556274,190.725
210.707427979,186.175
211.010269165,195.9
211.31312561,194.125
211.615982056,191.975
211.918807983,192.65
212.221618652,190.525
212.524429321,187.325
212.827224731,198.425
213.130004883,194.675
213.432769775,194.2
213.735534668,192.85
214.038269043,200.625
214.341003418,203.375
214.643737793,203.925
214.946456909,204.375
215.249145508,210.1
215.551834106,209.075
215.854507446,205.225
216.157165527,206.975
216.45980835,206.0
216.762451172,210.725
217.065078735,214.475
217.36769104,212.0
217.670303345,218.925
217.972885132,219.85
218.275466919,229.05
218.578048706,224.05
218.880599976,245.9
219.183120728,258.7
219.485656738,268.325
219.788192749,299.0
220.090682983,330.325
220.393188477,367.225
220.695663452,419.4
220.998138428,466.475
221.300582886,534.325
221.603042603,585.3
221.905487061,645.725
222.207901001,732.85
222.510299683,814.95
222.812728882,900.175
223.115097046,978.875
223.41746521,1068.05
223.719848633,1159.65
224.022171021,1237.15
224.324508667,1341.05
224.626846313,1438.275
224.929168701,1518.6
225.231460571,1617.475
225.533737183,1701.25
225.836013794,1784.8
226.138290405,1864.775
226.440536499,1939.2
226.742767334,2033.525
227.044998169,2080.75
227.347213745,2143.2
227.649429321,2215.0
227.951629639,2246.95
228.253799438,2281.85
228.555953979,2336.7
228.858123779,2375.375
229.160263062,2389.8
229.462371826,2435.35
229.764511108,2446.625
230.066619873,2467.65
230.36869812,2502.475
230.670776367,2510.875
230.972854614,2528.0
231.274902344,2570.925
231.576950073,2615.35
231.878967285,2611.425
232.180999756,2646.175
232.48298645,2691.5
232.784988403,2721.4
233.086975098,2742.95
233.388946533,2764.625
233.69090271,2806.125
233.992858887,2838.1
234.294769287,2832.275
234.596694946,2868.95
234.898605347,2885.8
235.200500488,2900.45
235.502380371,2922.975
235.804244995,2937.15
236.106109619,2916.5
236.407958984,2934.0
236.709777832,2945.2
237.011581421,2954.775
237.313400269,2923.55
237.615203857,2944.8
237.916976929,2957.6
238.21875,2936.875
238.520507812,2952.525
238.822250366,2941.1
239.12399292,2931.15
239.425704956,2948.825
239.727401733,2908.675
240.02911377,2922.975
240.330780029,2885.375
240.632446289,2885.4
240.93409729,2890.6
241.23576355,2870.725
241.537384033,2874.5
241.839004517,2872.525
242.140594482,2870.475
242.442199707,2888.5
242.743774414,2883.75
243.045333862,2883.775
243.346923828,2893.7
243.648452759,2886.825
243.949966431,2893.0
244.251495361,2898.9
244.552993774,2908.025
244.854492188,2876.775
245.155975342,2886.375
245.457443237,2895.65
245.758880615,2903.875
246.060333252,2897.45
246.36177063,2886.975
246.66317749,2883.025
246.964569092,2883.1
247.265945435,2879.525
247.567337036,2857.725
247.86869812,2889.9
248.170059204,2897.25
248.471389771,2894.425
248.772705078,2928.4
249.074035645,2932.2
249.375335693,2943.025
249.676620483,2976.2
249.977890015,3000.15
250.279159546,3027.425
250.58039856,3061.625
250.881637573,3086.4
251.182876587,3094.95
251.484069824,3162.825
251.785263062,3178.225
252.086456299,3233.075
252.387619019,3230.15
252.688781738,3272.475
252.989929199,3310.125
253.291061401,3360.1
253.592178345,3396.8
253.893280029,3426.9
254.194366455,3443.65
254.49546814,3445.45
254.796524048,3470.825
255.097579956,3506.4
255.398620605,3523.55
255.699645996,3530.85
256.000640869,3545.95
256.30166626,3544.15
256.602661133,3579.85
256.903656006,3570.45
257.204589844,3586.125
257.505523682,3561.5
257.80645752,3610.425
258.107391357,3580.6
258.408294678,3596.575
258.709228516,3565.425
259.010070801,3547.025
259.310943604,3565.85
259.611846924,3551.7
259.912658691,3534.35
260.213500977,3520.325
260.514343262,3520.925
260.815124512,3477.05
261.115936279,3479.55
261.416717529,3498.525
261.717468262,3502.05
262.018218994,3483.25
262.318969727,3501.325
262.619689941,3552.85
262.920410156,3595.05
263.221130371,3641.1
263.521789551,3687.05
263.822479248,3738.125
264.123138428,3798.25
264.42376709,3835.575
264.72442627,3849.025
265.025054932,3893.325
265.325622559,3946.5
265.626251221,3969.675
265.926818848,3977.975
266.227386475,3982.525
266.527954102,4002.875
266.828460693,4044.975
267.12902832,4002.425
267.429534912,4032.3
267.730010986,4060.425
268.030517578,4033.3
268.330993652,4064.2
268.631439209,4066.1
268.931915283,4107.2
269.232299805,4110.95
269.532745361,4130.75
269.8331604,4131.375
270.133544922,4175.8
270.433929443,4221.675
270.734313965,4229.15
271.034637451,4281.525
271.334991455,4288.6
271.635314941,4362.475
271.935638428,4428.725
272.235931396,4493.35
272.536254883,4572.65
272.836486816,4647.925
273.136749268,4739.25
273.437011719,4874.1
273.737213135,4968.75
274.037445068,5103.525
274.337677002,5206.65
274.6378479,5312.175
274.938049316,5483.1
275.238220215,5587.725
275.538360596,5750.15
275.838500977,5815.7
276.138641357,6038.85
276.438751221,6091.275
276.738830566,6236.0
277.03894043,6328.375
277.338989258,6456.725
277.639038086,6574.275
277.939056396,6689.675
278.239105225,6766.125
278.539093018,6885.7
278.839141846,6942.9
279.139129639,7081.725
279.439086914,7178.75
279.739044189,7264.9
280.039001465,7376.7
280.338928223,7437.025
280.63885498,7523.625
280.938781738,7606.55
281.238647461,7641.625
281.538513184,7696.575
281.838409424,7748.125
282.138244629,7821.375
282.438079834,7857.2
282.737945557,7922.325
283.037719727,7981.825
283.337524414,8001.05
283.637298584,8043.425
283.937072754,8062.6
284.236816406,8071.775
284.536560059,8111.1
284.836303711,8153.4
285.136016846,8216.975
285.43572998,8241.375
285.735412598,8216.45
286.035064697,8249.9
286.334747314,8309.95
286.634368896,8299.125
286.933990479,8254.175
287.233642578,8228.325
287.533203125,8221.45
287.832824707,8142.2
288.132385254,8100.95
288.431945801,7956.725
288.731506348,7812.45
289.031036377,7674.725
289.330566406,7546.5
289.630065918,7565.2
289.92956543,7497.85
290.229034424,7620.75
290.528503418,7803.925
290.827941895,7954.775
291.127380371,8118.375
291.42678833,8247.75
291.726226807,8400.45
292.025604248,8391.575
292.324981689,8461.15
292.624359131,8486.875
292.923736572,8515.125
293.223052979,8503.475
293.522369385,8509.925
293.821685791,8450.125
294.12097168,8454.075
294.420257568,8405.075
294.719543457,8369.525
295.018768311,8391.325
295.318023682,8285.7
295.617248535,8230.925
295.916442871,8201.275
296.215667725,8111.15
296.514862061,7960.375
296.813995361,7736.1
297.11315918,7543.875
297.412322998,7410.175
297.711425781,7356.975
298.010559082,7508.475
298.309631348,7744.225
298.608734131,7962.9
298.907806396,8146.0
299.206848145,8295.725
299.505889893,8362.85
299.804901123,8478.875
300.103912354,8540.45
300.402954102,8652.95
300.701904297,8690.4
301.00088501,8753.75
301.299835205,8837.95
301.5987854,8854.3
301.897735596,8964.475
302.196624756,8998.0
302.495513916,9080.3
302.794403076,9096.35
303.093292236,9171.3
303.392120361,9222.925
303.690979004,9305.325
303.989837646,9362.95
304.288604736,9409.325
304.587402344,9408.35
304.886199951,9466.1
305.184967041,9517.625
305.483734131,9545.375
305.782501221,9561.9
306.081176758,9577.0
306.37991333,9611.225
306.678619385,9592.375
306.977294922,9650.0
307.275970459,9627.925
307.574645996,9652.05
307.873260498,9641.95
308.171875,9641.8
308.470489502,9637.575
308.769104004,9571.65
309.067687988,9552.95
309.366241455,9595.425
309.664794922,9513.5
309.963348389,9544.675
310.261871338,9530.675
310.560394287,9544.3
310.858856201,9561.85
311.157348633,9569.025
311.455810547,9595.0
311.754272461,9627.55
312.052703857,9689.975
312.351135254,9686.75
312.649536133,9719.275
312.947937012,9651.65
313.246307373,9725.625
313.544647217,9716.7
313.843017578,9629.4
314.141387939,9613.925
314.439697266,9668.95
314.738006592,9580.425
315.036315918,9498.375
315.334564209,9425.35
315.6328125,9343.15
315.931091309,9304.15
316.229309082,9173.75
316.527526855,9013.375
316.825744629,8972.9
317.123901367,8871.85
317.422088623,8831.925
317.720245361,8819.25
318.0184021,8824.2
318.316497803,8856.3
318.614654541,8901.5
318.912750244,8985.4
319.21081543,8990.325
319.50894165,9033.925
319.806945801,9014.225
320.104980469,8989.375
320.403045654,9011.0
320.701049805,8975.8
320.999023438,8955.2
321.297027588,8912.475
321.595001221,8878.45
321.892913818,8830.4
322.190887451,8788.825
322.488830566,8704.325
322.786712646,8676.05
323.084625244,8580.675
323.382507324,8545.65
323.680358887,8464.2
323.978210449,8375.9
324.276062012,8331.1
324.573852539,8254.65
324.871643066,8223.775
325.169464111,8160.1
325.467224121,8091.7
325.764984131,8000.875
326.062744141,7930.875
326.360473633,7845.525
326.658203125,7796.6
326.955871582,7723.575
327.253570557,7653.675
327.551239014,7579.925
327.848907471,7506.375
328.146514893,7430.4
328.444152832,7353.2
328.741790771,7300.95
329.039367676,7243.025
329.336914062,7184.45
329.634521484,7123.0
329.932067871,7068.825
330.229553223,6993.05
330.527160645,6932.425
330.824615479,6856.75
331.12210083,6780.7
331.419586182,6670.825
331.717041016,6609.35
332.014465332,6523.35
332.311920166,6521.15
332.609313965,6414.275
332.906707764,6442.225
333.204101562,6397.425
333.501495361,6411.15
333.798828125,6479.35
334.096160889,6503.575
334.39352417,6564.65
334.690795898,6615.775
334.988098145,6652.575
335.285400391,6715.875
335.582641602,6727.525
335.879882812,6767.85
336.177124023,6767.75
336.474334717,6859.7
336.77154541,6844.9
337.068725586,6860.575
337.365905762,6892.575
337.66305542,6887.1
337.960205078,6918.5
338.257324219,6922.4
338.554443359,6935.0
338.8515625,6950.225
339.148590088,6935.725
339.445648193,6956.325
339.742736816,6906.875
340.039764404,6902.825
340.336761475,6830.925
340.63381958,6811.95
340.930755615,6788.85
341.227722168,6702.775
341.524688721,6622.9
341.821624756,6568.075
342.118560791,6598.85
342.415496826,6697.525
342.712402344,6811.325
343.009246826,6966.175
343.306121826,7093.95
343.602966309,7124.225
343.899810791,7229.925
344.196624756,7325.0
344.493438721,7326.225
344.79019165,7398.225
345.086975098,7446.55
345.383758545,7503.625
345.680480957,7466.225
345.977203369,7482.375
346.273956299,7530.75
346.570617676,7496.55
346.86730957,7555.9
347.163970947,7505.025
347.460601807,7546.775
347.757232666,7587.35
348.053894043,7528.4
348.350463867,7472.225
348.647064209,7458.975
348.943634033,7413.225
349.24017334,7466.4
349.536712646,7367.025
349.833251953,7368.025
350.129760742,7367.2
350.426208496,7363.0
350.722747803,7303.45
351.019195557,7309.55
351.315612793,7247.15
351.612060547,7211.3
351.908508301,7155.45
352.204864502,7101.4
352.501281738,7045.375
352.797637939,6980.075
353.093963623,6888.275
353.390319824,6823.475
353.686645508,6724.875
353.982940674,6661.125
354.27923584,6619.5
354.575531006,6575.225
354.871765137,6548.2
355.167999268,6496.025
355.464233398,6503.425
355.760437012,6515.425
356.056640625,6498.1
356.352813721,6526.55
356.648956299,6516.1
356.945129395,6529.225
357.241271973,6514.775
357.537384033,6537.45
357.833496094,6497.7
358.129577637,6479.2
358.425628662,6429.6
358.721679688,6405.65
359.017730713,6382.725
359.313720703,6333.625
359.609710693,6302.875
359.905761719,6216.85
360.201721191,6197.0
360.497650146,6124.3
360.793609619,6097.775
361.089538574,6025.6
361.385437012,5922.825
361.681365967,5901.275
361.977233887,5824.8
362.273071289,5755.675
362.568908691,5638.175
362.864746094,5514.775
363.160552979,5373.525
363.456359863,5182.675
363.752166748,5045.025
364.047912598,4968.1
364.343658447,4925.875
364.639434814,4960.625
364.935119629,4983.85
365.230834961,5052.7
365.526550293,5087.225
365.822174072,5102.775
366.117858887,5105.325
366.413482666,5151.575
366.709075928,5148.825
367.004730225,5064.575
367.300292969,5040.125
367.595855713,5095.2
367.891448975,4978.525
368.186981201,4875.9
368.482513428,4821.05
368.778015137,4811.85
369.073547363,4779.2
369.36895752,4770.425
369.664428711,4673.65
369.95993042,4563.85
370.255310059,4505.15
370.550720215,4464.775
370.846160889,4428.3
371.14151001,4390.45
371.436859131,4354.9
371.73223877,4331.525
372.027557373,4305.55
372.322875977,4251.425
372.618164062,4207.775
372.913482666,4157.95
373.208709717,4159.4
373.503967285,4060.05
373.799194336,4018.8
374.094421387,4022.975
374.389648438,3996.8
374.684844971,3986.925
374.979980469,4010.0
375.275146484,4047.175
375.570281982,4062.7
375.865386963,4032.725
376.160522461,4004.85
376.455596924,3996.2
376.750640869,4094.625
377.045715332,4112.725
377.340759277,4134.15
377.635772705,4201.25
377.93081665,4224.675
378.225769043,4292.675
378.520751953,4343.3
378.815734863,4274.175
379.110656738,4452.55
379.405548096,4629.4
379.700500488,4479.625
379.995391846,4263.175
380.290252686,4287.4
380.585083008,4404.125
380.879974365,4438.55
381.17477417,4333.925
381.469543457,4288.775
381.764404297,4275.625
382.059143066,4310.925
382.353912354,4388.525
382.648651123,4483.725
382.943389893,4436.3
383.238067627,4271.75
383.532775879,4274.825
383.827484131,4211.05
384.12210083,4207.325
384.416778564,4156.2
384.711425781,4063.175
385.006011963,4087.1
385.300628662,4058.05
385.595184326,4150.025
385.88973999,4242.75
386.184295654,4329.25
386.478820801,4416.425
386.77331543,4500.45
387.067840576,4611.05
387.362335205,4689.275
387.656768799,4757.425
387.951202393,4796.0
388.245635986,4869.575
388.540039062,4948.4
388.834472656,5001.95
389.128875732,4911.7
389.423187256,4666.625
389.717559814,4619.325
390.011871338,4733.2
390.306182861,4746.4
390.600463867,4752.275
390.894775391,4827.675
391.189025879,4864.675
391.48324585,4843.975
391.777526855,4914.9
392.071685791,5123.15
392.365875244,5225.25
392.660064697,5260.15
392.95425415,5607.8
393.248382568,5575.65
393.542510986,5131.7
393.836608887,4947.95
394.130706787,4950.875
394.424804688,4877.5
394.71887207,4999.4
395.012878418,4969.225
395.306915283,4876.35
395.600921631,4806.925
395.894927979,4769.775
396.188903809,4817.025
396.482879639,4840.95
396.776794434,5038.675
397.070739746,4990.05
397.364654541,5011.675
397.658538818,5408.375
397.952423096,5430.05
398.246307373,5377.125
398.540100098,5920.325
398.833953857,5785.575
399.127746582,5321.2
399.421508789,5332.55
399.715301514,5258.5
400.009063721,5171.4
400.30279541,5025.2
400.596496582,4952.625
400.890258789,5113.95
401.183929443,5206.5
401.47756958,5071.9
401.771240234,4849.25
402.064880371,4863.375
402.35848999,4902.95
402.652130127,4820.125
402.945678711,4907.275
403.239257812,4816.35
403.532775879,4755.875
403.82635498,4826.925
404.119842529,4738.45
404.413360596,4728.55
404.706848145,4800.5
405.000274658,4731.85
405.293762207,4801.625
405.587188721,4864.875
405.880584717,4688.875
406.17401123,4504.225
406.467407227,4320.8
406.760742188,4337.0
407.054107666,4339.875
407.347442627,4281.7
407.640716553,4283.3
407.934051514,4340.475
408.227325439,4406.9
408.520568848,4603.325
408.813842773,4709.95
409.107086182,4505.225
409.400238037,4471.25
409.693450928,4387.45
409.986633301,4524.45
410.279754639,4423.1
410.572875977,4142.05
410.86605835,4075.475
411.159118652,4098.825
411.452209473,4091.95
411.745330811,3975.675
412.038360596,3885.725
412.331390381,3919.175
412.624420166,3959.25
412.917388916,3867.375
413.210388184,3692.825
413.503387451,3679.85
413.796295166,3570.65
414.089233398,3382.1
414.382141113,3303.8
414.675048828,3306.05
414.967926025,3321.175
415.260803223,3266.325
415.55368042,3302.175
415.846466064,3253.725
416.139282227,3343.1
416.432098389,3477.375
416.724853516,3456.1
417.017608643,3410.85
417.31036377,3415.625
417.603088379,3559.025
417.895782471,3520.95
418.188476562,3487.1
418.481140137,3554.4
418.773803711,3627.925
419.066436768,3601.025
419.359039307,3672.05
419.651641846,3681.1
419.944244385,3675.35
420.236816406,3631.725
420.529327393,3859.075
420.821899414,3922.95
421.114379883,3854.9
421.406860352,4122.625
421.699371338,4350.575
421.991821289,4303.825
422.284240723,4093.9
422.576721191,3956.175
422.869110107,3835.3
423.161468506,3786.975
423.453857422,3841.95
423.74621582,3702.05
424.038543701,3583.025
424.330871582,3533.15
424.623168945,3480.875
424.915435791,3612.475
425.207702637,3570.375
425.499969482,3532.875
425.792205811,3473.85
426.084411621,3203.175
426.376617432,3293.475
426.668762207,3363.525
426.9609375,3247.425
427.253082275,3363.45
427.545196533,3789.775
427.837310791,3493.15
428.129425049,3194.075
428.421447754,3429.175
428.713531494,3440.575
429.005554199,3431.15
429.297576904,3426.225
429.589599609,3884.525
429.881561279,4206.875
430.173522949,3982.7
430.465484619,3920.05
430.757415771,4020.2
431.049316406,3774.125
431.341186523,3529.4
431.633117676,3435.525
431.924957275,3117.65
432.21673584,3005.375
432.508636475,3147.05
432.800415039,3192.7
433.092163086,3063.675
433.383972168,3050.6
433.675689697,3776.675
433.967437744,4284.85
434.259155273,3307.725
434.550872803,2973.175
434.842498779,3045.5
435.134185791,3172.525
435.425842285,3198.975
435.717437744,3103.15
436.009063721,2915.8
436.30065918,3043.425
436.592224121,3420.825
436.883758545,3208.125
437.175323486,2937.125
437.466827393,2909.075
437.758331299,2930.25
438.049804688,2951.325
438.341247559,3026.275
438.63269043,3105.725
438.924163818,3102.125
439.215515137,3065.55
439.50692749,2963.3
439.798309326,2949.85
440.089660645,2974.875
440.380981445,2884.025
440.672332764,2870.975
440.963623047,3133.15
441.254882812,3619.65
441.546173096,3800.2
441.837402344,3550.9
442.128631592,3354.4
442.41986084,3334.275
442.711029053,3207.25
443.002197266,3282.975
443.293365479,3467.375
443.584503174,3600.95
443.875610352,3569.05
444.166717529,3304.125
444.457794189,3364.0
444.748840332,3337.5
445.039916992,3291.875
445.330932617,3396.9
445.621948242,3230.575
445.912963867,3034.025
446.203918457,3269.275
446.494812012,3512.125
446.785827637,3299.275
447.076721191,3112.225
447.367584229,3093.975
447.658447266,3069.725
447.949371338,3113.225
448.24017334,3001.85
448.530975342,2913.6
448.821838379,3114.275
449.112579346,3176.6
449.40335083,3101.225
449.694152832,3130.55
449.984863281,3148.5
450.27557373,3075.125
450.56628418,3140.9
450.856933594,3152.65
451.147583008,2993.3
451.438262939,2884.65
451.728881836,3092.55
452.019470215,3200.225
452.310089111,2982.5
452.600646973,3007.225
452.891174316,3055.5
453.181732178,2875.6
453.472229004,2750.3
453.762695312,2864.8
454.053222656,2880.3
454.343658447,2750.75
454.634063721,2692.725
454.924530029,2857.925
455.214935303,3020.2
455.505279541,3086.45
455.795715332,2943.825
456.086029053,2740.475
456.376312256,2726.4
456.666687012,2746.5
456.956939697,2864.35
457.247192383,2863.2
457.537445068,2953.575
457.827728271,3125.05
458.117919922,3050.65
458.408081055,2974.275
458.698303223,3166.95
458.988433838,3098.575
459.278564453,2914.325
459.568725586,3197.25
459.858825684,3318.875
460.148864746,2987.0
460.438995361,2953.1
460.729034424,3027.4
461.019042969,3022.225
461.309082031,3231.425
461.599060059,3115.2
461.889007568,2644.625
462.179016113,2450.65
462.468933105,2690.225
462.75881958,2812.0
463.048736572,2544.675
463.338592529,2821.925
463.628448486,3180.6
463.918365479,2893.925
464.2081604,3070.8
464.497924805,3022.45
464.787780762,3140.5
465.077514648,3456.9
465.367218018,3072.975
465.657012939,3289.6
465.946685791,3702.65
466.236358643,3290.05
466.526092529,2743.525
466.815734863,2755.0
467.105316162,2662.825
467.394927979,2705.275
467.684570312,2548.575
467.974121094,2645.0
468.263671875,2749.4
468.553222656,2521.275
468.842773438,2434.325
469.132232666,2317.325
469.42175293,2329.925
469.711212158,2311.25
470.000640869,2175.3
470.290100098,2244.2
470.579498291,2279.325
470.868835449,2287.9
471.158294678,2243.775
471.447601318,2221.65
471.736907959,2294.475
472.026275635,2358.95
472.315551758,2331.85
472.604797363,2335.175
472.894104004,2477.575
473.183319092,2594.95
473.47253418,2586.075
473.761779785,2578.75
474.05090332,2499.575
474.340087891,2455.525
474.629241943,2380.975
474.918365479,2558.9
475.207427979,2841.725
475.496551514,2866.025
475.785614014,2592.6
476.074645996,2387.525
476.363708496,2489.975
476.652679443,2641.375
476.941650391,2446.875
477.230682373,2278.3
477.519622803,2282.675
477.808502197,2453.475
478.097412109,2735.225
478.386352539,2675.775
478.675201416,2404.65
478.964050293,2287.1
479.25289917,2491.275
479.541717529,2545.3
479.830474854,2379.1
480.11932373,2747.325
480.408050537,2918.725
480.696777344,2517.6
480.985534668,2386.775
481.274200439,2484.925
481.562866211,2762.65
481.851593018,2784.95
482.140197754,2717.95
482.428833008,2548.85
482.717468262,2328.65
483.006011963,2374.325
483.294586182,2491.9
483.5831604,2525.325
483.871673584,2382.85
484.16015625,2543.25
484.448699951,2789.625
484.7371521,2844.15
485.02557373,2833.775
485.314025879,2553.275
485.602416992,4010.8
485.890777588,14040.8
486.179199219,12558.05
486.467559814,3375.3
486.755859375,2446.775
487.044219971,2851.55
487.332519531,3049.2
487.620758057,2629.75
487.908966064,2344.85
488.197265625,2145.025
488.485473633,2038.475
488.773651123,2159.15
489.061859131,2145.4
489.350006104,2099.575
489.638122559,2034.65
489.926300049,2058.525
490.214355469,2002.975
490.502441406,1948.75
490.790527344,1881.8
491.078552246,2093.1
491.366546631,2085.475
491.654602051,1835.4
491.942565918,1925.15
492.230499268,1956.475
492.518493652,1928.025
492.806396484,1962.05
493.094268799,1867.775
493.382202148,1921.9
493.670074463,2058.65
493.957885742,1893.225
494.245727539,1881.7
494.533508301,2059.675
494.821289062,1938.925
495.109100342,1772.8
495.396850586,1722.075
495.684539795,1670.85
495.972290039,1911.05
496.25994873,2271.875
496.547607422,2273.9
496.835296631,2089.15
497.122894287,1729.475
497.410522461,1643.725
497.6980896,1659.725
497.985687256,1622.25
498.273223877,1730.15
498.560760498,1813.55
498.848266602,1825.225
499.135772705,1802.65
499.423217773,1850.1
499.710693359,1969.175
499.998138428,1902.85
500.285522461,1726.25
500.572937012,1635.0
500.860290527,1691.325
501.147644043,1802.35
501.434997559,2042.0
501.722290039,1912.6
502.00958252,1649.325
502.296875,1946.55
502.584106445,1920.6
502.871337891,1743.9
503.158599854,1814.85
503.445770264,1899.6
503.732910156,1872.175
504.020141602,1675.625
504.307220459,1656.275
504.594329834,1689.725
504.881469727,1615.425
505.168518066,1698.725
505.455535889,1768.5
505.742614746,1644.2
506.029632568,1573.5
506.316589355,1781.15
506.603637695,1861.9
506.890563965,1657.175
507.177459717,1473.975
507.464385986,1385.95
507.751312256,1628.05
508.038146973,1722.675
508.325012207,1565.575
508.611877441,1635.2
508.898681641,1642.75
509.185424805,1472.875
509.472259521,1431.55
509.759002686,1514.25
510.045715332,1552.175
510.332458496,1485.625
510.619140625,1561.825
510.905761719,1470.65
511.192504883,1450.3
511.479095459,1503.9
511.765686035,1447.575
512.052307129,1361.475
512.338928223,1296.925
512.625427246,1358.15
512.91204834,1420.7
513.198486328,1395.975
513.484985352,1369.075
513.77142334,1289.75
514.057922363,1343.775
514.344299316,1344.8
514.63079834,1285.875
514.917175293,1278.0
515.203552246,1180.175
515.489868164,1155.1
515.776245117,1284.2
516.0625,1332.95
516.348815918,1224.35
516.635070801,1254.325
516.921325684,1322.425
517.207580566,1240.725
517.493774414,1152.775
517.779968262,1165.675
518.066101074,1209.975
518.352294922,1151.575
518.638366699,1154.325
518.924499512,1242.375
519.210632324,1329.675
519.496643066,1287.25
519.782714844,1172.475
520.068786621,1148.4
520.354736328,1100.45
520.640686035,1054.975
520.926757812,1110.275
521.212646484,1200.275
521.498535156,1202.175
521.784484863,1136.025
522.0703125,1069.4
522.356262207,1088.575
522.642089844,1159.2
522.927856445,1157.375
523.213684082,1148.125
523.499511719,1140.825
523.78527832,1187.2
524.070983887,1242.1
524.356750488,1215.05
524.64239502,1173.55
524.928039551,1160.55
525.213806152,1186.45
525.499389648,1161.4
525.784973145,1207.275
526.070617676,1253.0
526.356140137,1209.225
526.641723633,1230.55
526.927307129,1288.45
527.212768555,1285.275
527.498291016,1270.275
527.783752441,1267.35
528.069213867,1249.0
528.354675293,1267.775
528.640014648,1440.05
528.925476074,1511.075
529.21081543,1420.525
529.496154785,1405.9
529.781555176,1375.275
530.066833496,1388.475
530.352050781,1405.925
530.637390137,1396.075
530.922607422,1394.5
531.207824707,1389.2
531.493041992,1369.5
531.778198242,1457.7
532.063354492,1425.425
532.348571777,1362.4
532.633666992,1390.125
532.918762207,1468.925
533.203857422,1559.4
533.488891602,1582.95
533.773925781,1536.025
534.059020996,1508.65
534.343933105,1524.075
534.628967285,1498.35
534.91394043,1524.3
535.198852539,1536.875
535.483703613,1520.5
535.768676758,1450.95
536.053527832,1465.7
536.338317871,1409.0
536.62322998,1338.125
536.90802002,1318.55
537.192810059,1340.775
537.477539062,1421.725
537.762329102,1468.425
538.047058105,1508.3
538.331726074,1544.675
538.616455078,1520.9
538.901123047,1507.525
539.18572998,1546.85
539.470397949,1548.9
539.755004883,1545.075
540.039550781,1496.9
540.32409668,1460.6
540.608703613,1495.525
540.893188477,1601.525
541.17767334,1618.15
541.462158203,1619.2
541.746643066,1562.1
542.031066895,1611.9
542.315429688,1650.725
542.59979248,1663.65
542.884216309,1630.775
543.168579102,1620.95
543.452941895,1623.225
543.737243652,1685.0
544.021484375,1744.875
544.305725098,1724.525
544.590026855,1710.85
544.874267578,1720.275
545.158447266,1768.025
545.442626953,1699.125
545.726806641,1592.05
546.010925293,1620.0
546.29510498,1652.6
546.579162598,1651.95
546.863220215,1687.65
547.147277832,1762.525
547.431335449,1840.95
547.715332031,1912.425
547.999328613,2029.325
548.283325195,2028.3
548.567260742,1873.575
548.851135254,1852.0
549.135070801,1817.225
549.419006348,1722.275
549.702819824,1822.425
549.986755371,1898.925
550.270507812,1860.925
550.554321289,1904.2
550.83807373,1923.3
551.121826172,1874.05
551.405517578,1887.35
551.689331055,2020.525
551.973022461,2244.225
552.256652832,2313.225
552.540344238,2217.525
552.823974609,2184.2
553.107543945,2174.3
553.391174316,2240.075
553.674743652,2306.85
553.958251953,2302.625
554.241821289,2313.4
554.525268555,2247.6
554.808776855,2243.75
555.092285156,2442.775
555.375671387,2524.125
555.659057617,2515.7
555.942504883,2547.075
556.225891113,2583.75
556.509216309,2549.15
556.792541504,2456.325
557.075866699,2525.625
557.359130859,2569.575
557.64239502,2569.05
557.92565918,2643.025
558.208862305,2627.975
558.49206543,2569.525
558.77532959,2574.65
559.058410645,2639.425
559.341552734,2623.475
559.624694824,2668.1
559.907775879,2751.45
560.190856934,2874.475
560.473937988,2871.225
560.756896973,2913.2
561.039978027,2958.175
561.322937012,2907.575
561.605895996,2903.575
561.88885498,2857.05
562.171813965,2844.9
562.454650879,2845.425
562.737548828,2886.55
563.020446777,2955.55
563.303283691,2971.875
563.58605957,3013.475
563.868896484,3020.425
564.151672363,3088.8
564.434387207,3124.95
564.717163086,3087.325
564.99987793,3127.575
565.282531738,3185.9
565.565185547,3121.35
565.847839355,3127.8
566.130432129,3268.575
566.413085938,3245.6
566.695678711,3235.925
566.978149414,3363.6
567.260681152,3514.55
567.543273926,3577.65
567.825744629,3481.175
568.108154297,3536.125
568.390686035,3648.975
568.673095703,3791.2
568.955505371,3826.9
569.237854004,3871.2
569.520202637,4165.45
569.802490234,4395.575
570.084838867,4356.225
570.367126465,4178.675
570.649414062,4178.325
570.93170166,4563.95
571.213928223,4644.125
571.496154785,4380.0
571.778381348,4622.775
572.06048584,4891.925
572.342590332,4403.125
572.624755859,4049.9
572.906860352,4103.775
573.188903809,4810.875
573.470947266,5077.4
573.752990723,4838.375
574.03503418,4943.375
574.317016602,5347.925
574.598937988,5117.775
574.88092041,4974.775
575.162841797,5180.975
575.444763184,4806.725
575.726623535,4511.35
576.008483887,4554.925
576.290344238,4986.425
576.572143555,5197.475
576.853881836,5268.95
577.135681152,5150.975
577.417419434,5235.2
577.699157715,6135.425
577.980895996,6300.075
578.262573242,5593.95
578.544128418,5103.625
578.825866699,5057.075
579.107421875,4731.6
579.388977051,4907.9
579.670593262,5305.65
579.952148438,5144.0
580.233642578,5249.5
580.515197754,5386.975
580.796691895,5048.75
581.078125,5247.5
581.359619141,6821.15
581.640991211,6914.2
581.922363281,5968.025
582.203796387,6032.35
582.485107422,5640.85
582.766418457,5214.275
583.047790527,5057.925
583.329040527,4944.2
583.610290527,4807.525
583.891540527,4940.625
584.172790527,5243.45
584.453918457,5268.2
584.735107422,5329.85
585.016235352,5778.6
585.297363281,5743.35
585.578552246,5556.025
585.859619141,5474.625
586.140625,5247.5
586.421630859,5085.8
586.702697754,5151.075
586.983642578,5389.6
587.264648438,5570.7
587.545654297,5501.725
587.826477051,5434.65
588.107421875,5244.425
588.388305664,5280.15
588.669189453,5364.25
588.950012207,5217.8
589.230834961,5107.075
589.511657715,5207.85
589.792358398,5299.1
590.073120117,5288.9
590.353881836,5277.05
590.63458252,5290.225
590.915283203,5262.325
591.195922852,5232.15
591.4765625,5304.05
591.757202148,5320.675
592.037780762,5308.975
592.31829834,5307.75
592.598937988,5532.625
592.879394531,5701.55
593.159912109,5612.75
593.440429688,5552.85
593.720825195,5523.45
594.001281738,5512.35
594.281677246,5421.475
594.562072754,5431.225
594.842407227,5530.1
595.122802734,5555.525
595.403137207,5544.275
595.683410645,5548.0
595.963623047,5517.4
596.243896484,5454.775
596.524169922,5459.7
596.804382324,5485.825
597.084533691,5503.275
597.364746094,5559.15
597.644836426,5567.325
597.924987793,5559.15
598.205078125,5516.925
598.485107422,5530.85
598.765197754,5663.3
599.045227051,5706.525
599.325195312,5615.3
599.605224609,5569.275
599.885192871,5635.1
600.165100098,5659.65
600.445007324,5586.825
600.724914551,5611.375
601.004760742,5612.25
601.284667969,5636.4
601.56451416,5599.0
601.844238281,5595.25
602.124084473,5599.575
602.403808594,5618.3
602.683532715,5652.7
602.963256836,5650.225
603.242919922,5670.3
603.522583008,5699.2
603.802246094,5683.05
604.081848145,5646.125
604.36138916,5644.225
604.641052246,5660.675
604.920532227,5611.5
605.200073242,5681.85
605.479614258,5686.7
605.759094238,5726.075
606.038574219,5718.875
606.317932129,5651.1
606.597412109,5653.05
606.87677002,5656.025
607.15612793,5709.9
607.435546875,5710.175
607.714782715,5717.975
607.99407959,5665.05
608.273376465,5646.125
608.552612305,5690.75
608.831848145,5685.05
609.111083984,5683.15
609.390258789,5652.7
609.669433594,5657.3
609.948608398,5745.175
610.227722168,5711.775
610.506713867,5641.525
610.785888672,5661.175
611.064880371,5655.925
611.34387207,5663.725
611.622924805,5666.375
611.901916504,5673.025
612.180847168,5603.175
612.459777832,5641.2
612.738647461,5616.225
613.01751709,5578.9
613.296447754,5524.5
613.575317383,5494.675
613.854064941,5453.95
614.132873535,5370.25
614.411621094,5317.85
614.690368652,5263.375
614.969177246,5207.4
615.247802734,5132.125
615.526489258,5119.4
615.805175781,5004.55
616.08380127,4875.575
616.362365723,4806.425
616.640991211,4755.775
616.919555664,4697.6
617.198059082,4806.45
617.4765625,5093.7
617.755126953,5249.45
618.033569336,5250.6
618.311950684,5245.6
618.590454102,5249.775
618.868774414,5218.2
619.147155762,5250.525
619.425598145,5228.55
619.703857422,5231.9
619.982177734,5222.65
620.260498047,5215.25
620.538757324,5207.925
620.816955566,5184.575
621.095214844,5133.8
621.373413086,5176.025
621.651550293,5235.675
621.929748535,5245.85
622.207824707,5223.2
622.485900879,5261.775
622.764038086,5254.225
623.042053223,5260.175
623.320007324,5305.325
623.598083496,5305.125
623.876037598,5294.45
624.153991699,5318.9
624.432006836,5333.35
624.709838867,5343.775
624.987731934,5311.6
625.265563965,5321.175
625.543395996,5324.975
625.821228027,5388.25
626.098999023,5364.475
626.376831055,5427.1
626.654541016,5447.175
626.932250977,5462.775
627.209960938,5499.7
627.487670898,5533.9
627.765319824,5535.05
628.04296875,5544.25
628.320495605,5572.075
628.598083496,5566.0
628.875671387,5611.775
629.153259277,5636.025
629.430725098,5693.5
629.708251953,5674.0
629.985656738,5694.325
630.263122559,5751.575
630.540588379,5761.725
630.817932129,5792.275
631.095275879,5809.1
631.372680664,5865.325
631.649963379,5901.8
631.927246094,5958.6
632.204589844,5971.8
632.481811523,6036.625
632.759033203,6124.475
633.036254883,6135.9
633.313415527,6219.9
633.590576172,6256.675
633.867736816,6379.825
634.144836426,6454.45
634.421875,6495.175
634.698913574,6544.8
634.976013184,6604.775
635.252990723,6676.2
635.529968262,6714.95
635.807006836,6775.875
636.08392334,6768.8
636.360839844,6675.175
636.637756348,6579.325
636.914611816,6557.75
637.191467285,6532.125
637.468261719,6620.1
637.745056152,6566.975
638.021789551,6598.2
638.298583984,6624.575
638.575317383,6652.925
638.851989746,6646.375
639.12878418,6642.5
639.405395508,6655.425
639.682006836,6673.65
639.958618164,6676.375
640.235229492,6659.25
640.511779785,6702.0
640.788330078,6698.375
641.064880371,6702.475
641.341308594,6676.425
641.617797852,6697.05
641.894226074,6693.05
642.170654297,6707.35
642.44708252,6696.825
642.723388672,6686.65
642.999755859,6684.4
643.276123047,6706.35
643.552429199,6669.675
643.828674316,6690.825
644.104919434,6665.275
644.381164551,6664.875
644.657348633,6658.65
644.933532715,6637.975
645.209716797,6658.625
645.485839844,6645.3
645.761901855,6646.975
646.038024902,6651.925
646.314086914,6683.425
646.590087891,6625.45
646.866149902,6689.9
647.142150879,6644.325
647.41809082,6598.925
647.694030762,6605.275
647.969970703,6607.025
648.245788574,6656.475
648.521728516,6645.775
648.797546387,6610.3
649.073303223,6633.65
649.349182129,6598.375
649.624938965,6637.925
649.900634766,6633.175
650.176391602,6605.325
650.452087402,6577.35
650.727783203,6594.325
651.003479004,6624.05
651.279052734,6601.65
651.554626465,6590.0
651.83026123,6576.75
652.105773926,6603.15
652.381286621,6582.175
652.656860352,6568.975
652.932312012,6586.725
653.207763672,6612.9
653.483215332,6634.625
653.758605957,6619.825
654.033935547,6632.1
654.309326172,6627.0
654.584716797,6641.0
654.859985352,6630.875
655.135253906,6675.975
655.410583496,6690.4
655.685791016,7681.325
655.9609375,11957.625
656.236206055,11694.3
656.511291504,7774.775
656.786437988,6830.25
657.061645508,6714.525
657.336669922,6712.5
657.611694336,6744.725
657.886779785,6771.8
658.161804199,6793.85
658.436828613,6743.375
658.711791992,6786.575
658.986755371,6777.175
659.261657715,6793.675
659.536621094,6814.15
659.811401367,6828.45
660.086303711,6851.15
660.36114502,6818.325
660.635864258,6817.175
660.910644531,6842.325
661.185424805,6827.325
661.460205078,6886.65
661.734863281,6893.55
662.009521484,6887.4
662.284179688,6927.8
662.558776855,6929.45
662.833435059,6951.725
663.108032227,6967.775
663.382568359,6953.525
663.657043457,7027.925
663.93157959,7034.825
664.206054688,6999.85
664.48046875,7051.95
664.755004883,7066.825
665.02935791,7088.925
665.303710938,7114.25
665.578125,7126.275
665.852416992,7147.125
666.126708984,7129.925
666.401062012,7161.975
666.675292969,7194.925
666.949462891,7200.025
667.223754883,7195.8
667.497924805,7216.675
667.772094727,7249.275
668.046264648,7261.325
668.3203125,7309.0
668.594421387,7311.0
668.868469238,7315.075
669.14251709,7313.675
669.416503906,7341.125
669.690551758,7353.3
669.964477539,7356.55
670.23840332,7374.925
670.512329102,7373.075
670.786254883,7353.75
671.060058594,7433.675
671.333984375,7423.7
671.607788086,7454.75
671.881530762,7469.25
672.155334473,7508.625
672.429077148,7528.85
672.702758789,7541.6
672.97644043,7521.9
673.25012207,7535.475
673.523742676,7515.3
673.797302246,7541.8
674.070922852,7594.325
674.344482422,7583.825
674.618041992,7620.075
674.891601562,7585.55
675.165100098,7626.825
675.438476562,7630.025
675.711975098,7674.975
675.985412598,7640.275
676.258789062,7640.7
676.532165527,7682.025
676.805480957,7672.95
677.078796387,7703.6
677.352111816,7718.625
677.625366211,7711.1
677.898620605,7698.275
678.171875,7771.725
678.445007324,7750.2
678.718200684,7789.5
678.991394043,7791.825
679.264404297,7775.625
679.537536621,7797.45
679.81060791,7828.2
680.083679199,7842.8
680.356689453,7821.275
680.629699707,7820.825
680.902648926,7809.025
681.175598145,7885.0
681.448547363,7908.85
681.721435547,7877.125
681.99420166,7888.35
682.267150879,7881.575
682.539916992,7986.6
682.812744141,7922.275
683.085510254,7915.15
683.358215332,7943.2
683.63092041,7923.0
683.903625488,7933.125
684.176330566,7916.25
684.448913574,7911.75
684.721557617,7918.125
684.99420166,7988.35
685.266662598,7951.875
685.539245605,7991.3
685.811767578,8007.125
686.084289551,8011.275
686.356689453,8063.725
686.629150391,8097.475
686.901550293,8129.875
687.17401123,8113.225
687.446350098,8137.075
687.718688965,8147.9
687.990966797,8204.4
688.263305664,8206.375
688.535522461,8192.725
688.807739258,8192.125
689.079956055,8242.425
689.352172852,8289.15
689.624328613,8269.875
689.896484375,8307.325
690.168518066,8313.9
690.440612793,8353.7
690.71270752,8336.5
690.984741211,8324.1
691.256713867,8360.175
691.528747559,8334.225
691.800720215,8362.875
692.072631836,8401.0
692.344543457,8447.425
692.616394043,8457.1
692.888244629,8459.2
693.160095215,8502.8
693.431945801,8521.6
693.703674316,8485.375
693.975463867,8502.475
694.247131348,8531.5
694.518859863,8531.025
694.790588379,8569.875
695.062255859,8591.85
695.33380127,8563.275
695.60546875,8551.6
695.87701416,8596.4
696.148498535,8606.85
696.42010498,8648.075
696.691589355,8671.575
696.96307373,8672.75
697.234558105,8739.825
697.50592041,8714.575
697.777282715,8706.675
698.048706055,8715.225
698.320068359,8802.7
698.591308594,8763.125
698.862670898,8772.75
699.133972168,8824.925
699.405151367,8789.55
699.676391602,8830.875
699.947570801,8823.375
700.21875,8847.55
700.489868164,8850.6
700.761047363,8872.8
701.032104492,8905.5
701.303100586,8881.6
701.57421875,8915.075
701.845214844,8929.35
702.116149902,8939.975
702.387207031,8935.975
702.65814209,8970.775
702.928955078,9005.7
703.199951172,8966.25
703.47076416,8958.7
703.741577148,8952.425
704.012451172,9016.45
704.28314209,9017.975
704.553955078,8994.1
704.824707031,9072.375
705.095397949,9070.675
705.366027832,9073.375
705.63671875,9082.275
705.907348633,9059.95
706.17791748,9087.65
706.448486328,9097.225
706.719055176,9124.575
706.989562988,9123.45
707.260131836,9150.15
707.530517578,9154.175
707.800964355,9149.55
708.071411133,9124.275
708.341796875,9117.1
708.612182617,9144.375
708.882446289,9120.725
709.152893066,9144.975
709.423156738,9185.025
709.693359375,9138.275
709.963623047,9159.5
710.233825684,9224.075
710.503967285,9163.075
710.774169922,9180.375
711.044311523,9169.1
711.31439209,9165.425
711.584533691,9216.65
711.854553223,9193.025
712.124572754,9203.475
712.39465332,9178.0
712.664611816,9204.625
712.934509277,9291.75
713.204467773,9247.625
713.474365234,9280.05
713.74420166,9287.4
714.014099121,9282.525
714.283874512,9287.325
714.553710938,9300.325
714.823486328,9306.15
715.093200684,9292.875
715.362915039,9302.4
715.632629395,9304.0
715.902282715,9264.325
716.171875,9271.9
716.441589355,9292.7
716.711181641,9261.175
716.980712891,9309.075
717.250244141,9273.7
717.519775391,9294.275
717.78918457,9287.025
718.058654785,9338.3
718.328125,9370.1
718.597473145,9325.95
718.866882324,9344.775
719.136230469,9337.425
719.405578613,9364.825
719.674865723,9370.0
719.944152832,9345.5
720.213439941,9322.725
720.48260498,9371.125
720.75177002,9393.925
721.020996094,9374.25
721.290100098,9367.625
721.559204102,9329.95
721.828308105,9388.65
722.097351074,9382.2
722.366455078,9377.05
722.635437012,9373.95
722.904418945,9333.225
723.173400879,9370.15
723.442321777,9405.75
723.711181641,9380.05
723.980102539,9428.1
724.248962402,9398.375
724.51776123,9378.525
724.786560059,9436.075
725.055358887,9427.775
725.324035645,9392.775
725.592834473,9403.025
725.86151123,9379.025
726.130187988,9369.85
726.398803711,9354.725
726.667419434,9386.225
726.935974121,9359.475
727.204528809,9309.25
727.473083496,9357.875
727.741638184,9305.55
728.010070801,9308.075
728.278564453,9267.75
728.546936035,9310.85
728.815368652,9222.225
729.08380127,9135.8
729.352111816,9092.4
729.620361328,9047.875
729.88873291,9090.9
730.156982422,9141.025
730.425231934,9162.475
730.693481445,9144.775
730.961669922,9198.0
731.229797363,9237.15
731.49798584,9268.15
731.766113281,9323.8
732.034118652,9412.025
732.302246094,9438.55
732.570251465,9465.25
732.838256836,9506.225
733.106262207,9589.975
733.374145508,9614.55
733.642089844,9682.275
733.909973145,9707.825
734.177856445,9797.125
734.445678711,9881.75
734.713562012,9987.7
734.981323242,9982.7
735.249084473,10047.5
735.516845703,10228.25
735.784545898,10279.25
736.052185059,10319.275
736.319885254,10431.45
736.587524414,10492.775
736.855102539,10534.025
737.122619629,10671.025
737.390197754,10704.925
737.657714844,10824.65
737.925170898,10905.675
738.192749023,11024.8
738.460144043,11080.25
738.727539062,11119.8
738.994995117,11244.675
739.262329102,11323.8
739.529663086,11443.7
739.79699707,11437.5
740.06427002,11513.175
740.331481934,11598.625
740.598754883,11675.375
740.865905762,11667.525
741.133056641,11838.15
741.40032959,11851.25
741.667358398,11927.55
741.934448242,11979.975
742.201599121,11971.2
742.468566895,12125.725
742.735534668,12191.15
743.002563477,12240.725
743.26953125,12204.8
743.536437988,12307.275
743.803405762,12417.35
744.0703125,12333.125
744.337097168,12438.05
744.604003906,12358.025
744.870727539,12465.175
745.137512207,12484.85
745.40423584,12530.1
745.670959473,12489.275
745.93762207,12508.725
746.204284668,12545.625
746.470947266,12558.325
746.737548828,12518.7
747.004089355,12595.375
747.270751953,12595.475
747.53717041,12624.275
747.803710938,12550.275
748.070251465,12532.85
748.336608887,12540.625
748.603027344,12509.725
748.869445801,12523.825
749.135803223,12565.625
749.402099609,12566.825
749.668457031,12548.425
749.934753418,12540.775
750.20098877,12458.975
750.467224121,12540.075
750.733459473,12501.15
750.999572754,12454.7
751.26574707,12396.925
751.531860352,12450.3
751.797912598,12399.275
752.064025879,12356.975
752.330078125,12366.25
752.596069336,12325.175
752.862060547,12260.2
753.127990723,12292.9
753.393920898,12245.825
753.659912109,12204.45
753.925720215,12242.025
754.19152832,12189.6
754.457397461,12115.8
754.723144531,12095.675
754.988952637,12040.05
755.254699707,12052.55
755.520385742,12101.9
755.786071777,12101.75
756.051696777,12029.0
756.317382812,12026.75
756.582946777,11947.875
756.848510742,12005.325
757.114074707,11926.3
757.379577637,11926.95
757.645080566,11970.725
757.910583496,11926.6
758.175964355,11840.7
758.441345215,11829.65
758.706848145,11658.925
758.972106934,11693.75
759.237426758,11726.45
759.502807617,11762.95
759.768005371,11725.225
760.03326416,11690.125
760.298522949,11600.25
760.563659668,11640.45
760.828857422,11650.45
761.093994141,11640.55
761.359130859,11564.175
761.624206543,11539.75
761.889282227,11495.95
762.15423584,11482.15
762.419250488,11444.575
762.684265137,11421.825
762.949157715,11377.75
763.214050293,11379.975
763.479003906,11378.85
763.743835449,11316.4
764.008666992,11274.0
764.2734375,11296.975
764.538208008,11327.775
764.802978516,11320.15
765.067687988,11317.4
765.332397461,11285.775
765.597045898,11302.625
765.861694336,11247.925
766.126342773,11200.55
766.390930176,11182.625
766.655395508,11124.825
766.920043945,11125.05
767.184509277,11117.125
767.448974609,11113.1
767.713439941,11067.6
767.977783203,10998.675
768.2421875,11049.425
768.506591797,10986.675
768.770874023,11100.25
769.03515625,11078.55
769.299499512,11006.875
769.563720703,11020.3
769.827941895,10976.275
770.092163086,10968.825
770.356323242,10915.775
770.620483398,10961.95
770.88458252,10954.525
771.148681641,10957.85
771.412719727,10924.675
771.676757812,10948.075
771.940734863,10873.025
772.204711914,10875.55
772.468688965,10841.5
772.73260498,10809.65
772.996459961,10835.35
773.260314941,9651.525
773.524169922,1226.25
773.787963867,152.85
774.051696777,121.725
774.315551758,117.025
774.579223633,120.725
774.842895508,116.225
775.106567383,121.2
775.370239258,115.55
775.633789062,123.075
775.897399902,124.15
776.160949707,115.825
776.424499512,118.875
776.687988281,122.65
776.951477051,124.875
777.214904785,118.275
777.47833252,118.2
