191.299911499,98.725
191.603515625,101.75
191.907119751,94.6
192.210693359,103.55
192.514251709,98.425
192.817810059,101.175
193.121368408,104.95
193.42489624,103.375
193.728408813,100.025
194.031936646,97.0
194.33543396,93.875
194.638916016,110.625
194.94241333,97.325
195.245880127,97.225
195.549331665,93.275
195.852767944,98.95
196.156204224,178.925
196.459625244,175.3
196.763015747,178.95
197.066436768,184.9
197.369812012,176.025
197.673187256,175.0
197.9765625,174.225
198.279922485,179.525
198.583251953,171.05
198.886581421,179.125
199.18989563,182.825
199.493209839,176.275
199.79649353,167.9
200.09979248,185.7
200.403076172,172.5
200.706314087,180.9
201.009567261,177.0
201.312820435,177.95
201.616027832,169.575
201.919235229,167.45
202.222457886,168.45
202.525634766,174.125
202.828826904,167.6
203.132003784,164.325
203.435150146,170.25
203.738296509,169.225
204.041412354,169.575
204.344558716,172.35
204.647659302,175.075
204.950759888,172.85
205.253845215,175.4
205.556930542,170.7
205.859985352,169.9
206.163024902,174.975
206.466079712,171.625
206.769104004,181.575
207.072113037,173.525
207.375137329,170.45
207.678131104,174.85
207.981109619,178.35
208.284088135,167.975
208.587036133,176.05
208.889984131,177.55
209.19291687,182.25
209.495849609,180.0
209.798751831,181.075
210.101654053,177.675
210.404556274,180.875
210.707427979,177.65
211.010269165,182.8
211.31312561,181.25
211.615982056,180.975
211.918807983,181.45
212.221618652,176.475
212.524429321,176.05
212.827224731,185.875
213.130004883,180.575
213.432769775,184.475
213.735534668,179.15
214.038269043,185.425
214.341003418,183.525
214.643737793,188.425
214.946456909,190.875
215.249145508,190.35
215.551834106,192.75
215.854507446,194.575
216.157165527,192.6
216.45980835,191.275
216.762451172,199.425
217.065078735,197.825
217.36769104,196.575
217.670303345,199.675
217.972885132,202.625
218.275466919,206.225
218.578048706,193.5
218.880599976,204.325
219.183120728,203.625
219.485656738,198.975
219.788192749,209.9
220.090682983,217.425
220.393188477,226.275
220.695663452,241.6
220.998138428,254.3
221.300582886,279.425
221.603042603,294.5
221.905487061,333.275
222.207901001,367.975
222.510299683,412.8
222.812728882,461.15
223.115097046,524.525
223.41746521,588.75
223.719848633,647.075
224.022171021,719.25
224.324508667,791.95
224.626846313,889.75
224.929168701,962.1
225.231460571,1057.525
225.533737183,1136.0
225.836013794,1218.25
226.138290405,1312.375
226.440536499,1393.325
226.742767334,1480.0
227.044998169,1546.6
227.347213745,1623.85
227.649429321,1690.325
227.951629639,1757.75
228.253799438,1807.0
228.555953979,1874.975
228.858123779,1936.15
229.160263062,1964.75
229.462371826,2010.375
229.764511108,2050.05
230.066619873,2089.05
230.36869812,2142.175
230.670776367,2156.175
230.972854614,2201.35
231.274902344,2250.725
231.576950073,2305.7
231.878967285,2324.675
232.180999756,2387.15
232.48298645,2420.25
232.784988403,2478.3
233.086975098,2511.625
233.388946533,2544.65
233.69090271,2593.275
233.992858887,2633.275
234.294769287,2669.075
234.596694946,2716.75
234.898605347,2734.75
235.200500488,2755.45
235.502380371,2798.7
235.804244995,2824.15
236.106109619,2834.75
236.407958984,2862.95
236.709777832,2902.45
237.011581421,2910.4
237.313400269,2938.825
237.615203857,2951.7
237.916976929,3006.35
238.21875,2993.225
238.520507812,3024.475
238.822250366,3032.875
239.12399292,3063.65
239.425704956,3086.775
239.727401733,3083.625
240.02911377,3122.05
240.330780029,3116.975
240.632446289,3132.4
240.93409729,3152.075
241.23576355,3199.725
241.537384033,3210.575
241.839004517,3243.375
242.140594482,3265.7
242.442199707,3311.95
242.743774414,3335.9
243.045333862,3374.55
243.346923828,3410.15
243.648452759,3433.6
243.949966431,3466.825
244.251495361,3519.1
244.552993774,3541.2
244.854492188,3567.8
245.155975342,3619.475
245.457443237,3668.825
245.758880615,3671.025
246.060333252,3718.35
246.36177063,3733.35
246.66317749,3755.9
246.964569092,3790.2
247.265945435,3814.975
247.567337036,3856.925
247.86869812,3925.55
248.170059204,3943.725
248.471389771,3990.7
248.772705078,4061.525
249.074035645,4117.825
249.375335693,4166.275
249.676620483,4254.6
249.977890015,4296.95
250.279159546,4411.4
250.58039856,4472.025
250.881637573,4529.15
251.182876587,4635.15
251.484069824,4729.425
251.785263062,4824.725
252.086456299,4927.375
252.387619019,5001.375
252.688781738,5072.375
252.989929199,5175.675
253.291061401,5273.475
253.592178345,5371.65
253.893280029,5426.575
254.194366455,5531.375
254.49546814,5556.2
254.796524048,5635.4
255.097579956,5719.925
255.398620605,5742.375
255.699645996,5816.7
256.000640869,5807.175
256.30166626,5892.375
256.602661133,5961.275
256.903656006,5923.925
257.204589844,5944.875
257.505523682,5941.45
257.80645752,5981.2
258.107391357,5966.45
258.408294678,5954.275
258.709228516,5921.175
259.010070801,5899.3
259.310943604,5881.85
259.611846924,5826.8
259.912658691,5807.75
260.213500977,5761.975
260.514343262,5725.5
260.815124512,5644.95
261.115936279,5644.1
261.416717529,5599.025
261.717468262,5565.85
262.018218994,5537.725
262.318969727,5502.35
262.619689941,5531.4
262.920410156,5555.65
263.221130371,5591.375
263.521789551,5615.8
263.822479248,5607.55
264.123138428,5676.675
264.42376709,5680.575
264.72442627,5642.925
265.025054932,5631.125
265.325622559,5650.575
265.626251221,5608.4
265.926818848,5592.775
266.227386475,5533.925
266.527954102,5487.3
266.828460693,5488.925
267.12902832,5385.95
267.429534912,5335.6
267.730010986,5296.275
268.030517578,5239.125
268.330993652,5187.8
268.631439209,5130.025
268.931915283,5132.725
269.232299805,5065.9
269.532745361,5030.725
269.8331604,4971.825
270.133544922,4946.75
270.433929443,4928.45
270.734313965,4907.75
271.034637451,4915.025
271.334991455,4865.775
271.635314941,4905.5
271.935638428,4900.35
272.235931396,4918.425
272.536254883,4951.85
272.836486816,4979.05
273.136749268,5021.4
273.437011719,5103.3
273.737213135,5179.325
274.037445068,5237.25
274.337677002,5282.75
274.6378479,5345.225
274.938049316,5449.45
275.238220215,5505.45
275.538360596,5607.5
275.838500977,5659.2
276.138641357,5778.6
276.438751221,5778.4
276.738830566,5881.55
277.03894043,5916.175
277.338989258,6007.925
277.639038086,6091.575
277.939056396,6085.825
278.239105225,6142.75
278.539093018,6203.675
278.839141846,6245.55
279.139129639,6282.1
279.439086914,6345.25
279.739044189,6374.675
280.039001465,6446.35
280.338928223,6484.025
280.63885498,6492.55
280.938781738,6526.6
281.238647461,6530.1
281.538513184,6541.3
281.838409424,6571.8
282.138244629,6591.825
282.438079834,6588.25
282.737945557,6610.95
283.037719727,6620.7
283.337524414,6636.3
283.637298584,6632.225
283.937072754,6643.325
284.236816406,6640.725
284.536560059,6595.25
284.836303711,6617.775
285.136016846,6689.25
285.43572998,6677.125
285.735412598,6641.8
286.035064697,6645.825
286.334747314,6676.375
286.634368896,6662.4
286.933990479,6608.525
287.233642578,6567.675
287.533203125,6562.8
287.832824707,6503.025
288.132385254,6433.0
288.431945801,6304.05
288.731506348,6194.775
289.031036377,6065.9
289.330566406,5952.6
289.630065918,5953.725
289.92956543,5923.6
290.229034424,5973.425
290.528503418,6140.575
290.827941895,6265.425
291.127380371,6355.075
291.42678833,6451.55
291.726226807,6568.025
292.025604248,6601.125
292.324981689,6614.925
292.624359131,6624.375
292.923736572,6633.25
293.223052979,6668.1
293.522369385,6646.8
293.821685791,6589.45
294.12097168,6573.5
294.420257568,6553.35
294.719543457,6527.225
295.018768311,6521.3
295.318023682,6460.8
295.617248535,6396.8
295.916442871,6368.45
296.215667725,6298.8
296.514862061,6207.6
296.813995361,6026.075
297.11315918,5845.85
297.412322998,5762.025
297.711425781,5712.6
298.010559082,5843.225
298.309631348,6007.0
298.608734131,6188.6
298.907806396,6351.225
299.206848145,6453.35
299.505889893,6513.575
299.804901123,6617.325
300.103912354,6650.525
300.402954102,6746.85
300.701904297,6773.65
301.00088501,6821.35
301.299835205,6875.425
301.5987854,6893.7
301.897735596,6971.55
302.196624756,7018.625
302.495513916,7104.95
302.794403076,7106.85
303.093292236,7146.6
303.392120361,7218.175
303.690979004,7261.95
303.989837646,7302.275
304.288604736,7341.575
304.587402344,7328.775
304.886199951,7387.075
305.184967041,7421.2
305.483734131,7469.05
305.782501221,7486.1
306.081176758,7492.025
306.37991333,7553.55
306.678619385,7519.675
306.977294922,7566.025
307.275970459,7572.725
307.574645996,7569.925
307.873260498,7542.975
308.171875,7558.25
308.470489502,7554.8
308.769104004,7498.3
309.067687988,7494.2
309.366241455,7498.15
309.664794922,7477.975
309.963348389,7463.775
310.261871338,7467.05
310.560394287,7474.125
310.858856201,7513.5
311.157348633,7532.175
311.455810547,7529.25
311.754272461,7563.175
312.052703857,7636.225
312.351135254,7625.975
312.649536133,7620.975
312.947937012,7601.85
313.246307373,7646.475
313.544647217,7656.9
313.843017578,7604.525
314.141387939,7573.25
314.439697266,7600.05
314.738006592,7537.525
315.036315918,7461.925
315.334564209,7427.725
315.6328125,7388.95
315.931091309,7313.95
316.229309082,7232.575
316.527526855,7107.125
316.825744629,7091.4
317.123901367,7014.05
317.422088623,6952.725
317.720245361,6951.225
318.0184021,6996.025
318.316497803,7022.525
318.614654541,7043.1
318.912750244,7095.575
319.21081543,7095.2
319.50894165,7164.025
319.806945801,7150.6
320.104980469,7137.075
320.403045654,7125.325
320.701049805,7139.475
320.999023438,7103.7
321.297027588,7041.6
321.595001221,7037.725
321.892913818,7006.575
322.190887451,6941.175
322.488830566,6919.725
322.786712646,6881.65
323.084625244,6791.775
323.382507324,6780.5
323.680358887,6712.375
323.978210449,6650.9
324.276062012,6595.875
324.573852539,6563.175
324.871643066,6525.1
325.169464111,6468.225
325.467224121,6424.8
325.764984131,6366.575
326.062744141,6296.775
326.360473633,6225.125
326.658203125,6194.725
326.955871582,6121.8
327.253570557,6076.825
327.551239014,6029.725
327.848907471,5964.725
328.146514893,5902.15
328.444152832,5858.375
328.741790771,5832.825
329.039367676,5783.25
329.336914062,5705.425
329.634521484,5660.9
329.932067871,5626.575
330.229553223,5557.125
330.527160645,5524.875
330.824615479,5467.875
331.12210083,5415.0
331.419586182,5333.95
331.717041016,5284.6
332.014465332,5190.775
332.311920166,5189.475
332.609313965,5139.35
332.906707764,5135.925
333.204101562,5110.6
333.501495361,5122.025
333.798828125,5163.5
334.096160889,5181.1
334.39352417,5238.275
334.690795898,5287.425
334.988098145,5313.15
335.285400391,5366.65
335.582641602,5370.3
335.879882812,5425.5
336.177124023,5436.775
336.474334717,5490.975
336.77154541,5472.7
337.068725586,5508.625
337.365905762,5493.7
337.66305542,5523.525
337.960205078,5536.825
338.257324219,5548.225
338.554443359,5556.975
338.8515625,5577.625
339.148590088,5567.25
339.445648193,5591.2
339.742736816,5545.825
340.039764404,5548.375
340.336761475,5503.975
340.63381958,5471.55
340.930755615,5431.15
341.227722168,5386.325
341.524688721,5315.0
341.821624756,5275.475
342.118560791,5302.075
342.415496826,5370.3
342.712402344,5484.225
343.009246826,5611.775
343.306121826,5681.75
343.602966309,5750.9
343.899810791,5831.525
344.196624756,5912.225
344.493438721,5901.5
344.79019165,5947.025
345.086975098,6013.8
345.383758545,6043.0
345.680480957,6020.075
345.977203369,6028.625
346.273956299,6086.95
346.570617676,6055.575
346.86730957,6089.075
347.163970947,6074.275
347.460601807,6097.875
347.757232666,6088.4
348.053894043,6089.65
348.350463867,6060.675
348.647064209,6044.3
348.943634033,6028.55
349.24017334,6030.0
349.536712646,5982.15
349.833251953,5989.3
350.129760742,5959.475
350.426208496,5956.85
350.722747803,5933.675
351.019195557,5929.0
351.315612793,5880.1
351.612060547,5831.775
351.908508301,5795.85
352.204864502,5769.8
352.501281738,5715.025
352.797637939,5670.9
353.093963623,5610.1
353.390319824,5555.6
353.686645508,5481.875
353.982940674,5426.5
354.27923584,5375.275
354.575531006,5327.375
354.871765137,5325.45
355.167999268,5312.3
355.464233398,5324.9
355.760437012,5302.325
356.056640625,5322.55
356.352813721,5326.25
356.648956299,5327.925
356.945129395,5354.6
357.241271973,5329.925
357.537384033,5352.525
357.833496094,5320.7
358.129577637,5294.9
358.425628662,5285.9
358.721679688,5273.25
359.017730713,5233.75
359.313720703,5194.2
359.609710693,5186.8
359.905761719,5124.075
360.201721191,5084.025
360.497650146,5041.3
360.793609619,4997.025
361.089538574,4947.8
361.385437012,4881.5
361.681365967,4857.275
361.977233887,4795.525
362.273071289,4763.225
362.568908691,4649.6
362.864746094,4572.8
363.160552979,4454.65
363.456359863,4313.85
363.752166748,4181.175
364.047912598,4121.8
364.343658447,4074.2
364.639434814,4106.025
364.935119629,4136.625
365.230834961,4204.8
365.526550293,4230.25
365.822174072,4245.7
366.117858887,4243.3
366.413482666,4291.675
366.709075928,4321.625
367.004730225,4238.45
367.300292969,4217.3
367.595855713,4269.875
367.891448975,4174.2
368.186981201,4091.5
368.482513428,4054.875
368.778015137,4057.825
369.073547363,4007.825
369.36895752,4016.575
369.664428711,3941.225
369.95993042,3835.1
370.255310059,3792.475
370.550720215,3789.85
370.846160889,3730.9
371.14151001,3702.7
371.436859131,3681.025
371.73223877,3687.55
372.027557373,3650.275
372.322875977,3609.675
372.618164062,3576.3
372.913482666,3537.575
373.208709717,3522.575
373.503967285,3466.1
373.799194336,3422.725
374.094421387,3436.1
374.389648438,3436.7
374.684844971,3416.4
374.979980469,3443.8
375.275146484,3473.475
375.570281982,3477.475
375.865386963,3484.55
376.160522461,3435.6
376.455596924,3456.225
376.750640869,3523.9
377.045715332,3518.825
377.340759277,3576.9
377.635772705,3610.975
377.93081665,3637.125
378.225769043,3724.55
378.520751953,3749.225
378.815734863,3730.55
379.110656738,3860.95
379.405548096,4019.4
379.700500488,3884.9
379.995391846,3698.9
380.290252686,3741.3
380.585083008,3833.325
380.879974365,3856.8
381.17477417,3780.875
381.469543457,3745.5
381.764404297,3737.425
382.059143066,3754.425
382.353912354,3833.95
382.648651123,3911.025
382.943389893,3893.45
383.238067627,3745.25
383.532775879,3748.175
383.827484131,3696.925
384.12210083,3686.475
384.416778564,3641.45
384.711425781,3558.35
385.006011963,3588.5
385.300628662,3582.725
385.595184326,3636.25
385.88973999,3718.075
386.184295654,3815.8
386.478820801,3896.1
386.77331543,3980.55
387.067840576,4078.975
387.362335205,4163.0
387.656768799,4217.275
387.951202393,4238.325
388.245635986,4303.025
388.540039062,4370.8
388.834472656,4421.5
389.128875732,4331.75
389.423187256,4144.025
389.717559814,4093.85
390.011871338,4168.85
390.306182861,4208.425
390.600463867,4230.075
390.894775391,4297.375
391.189025879,4305.525
391.48324585,4316.925
391.777526855,4355.325
392.071685791,4556.9
392.365875244,4629.225
392.660064697,4677.825
392.95425415,4976.5
393.248382568,4961.225
393.542510986,4542.175
393.836608887,4389.05
394.130706787,4405.725
394.424804688,4344.9
394.71887207,4449.875
395.012878418,4440.275
395.306915283,4320.775
395.600921631,4281.075
395.894927979,4249.575
396.188903809,4302.6
396.482879639,4308.55
396.776794434,4479.85
397.070739746,4453.525
397.364654541,4472.775
397.658538818,4823.2
397.952423096,4845.85
398.246307373,4793.8
398.540100098,5271.825
398.833953857,5144.6
399.127746582,4735.6
399.421508789,4745.85
399.715301514,4691.45
400.009063721,4605.1
400.30279541,4481.5
400.596496582,4389.75
400.890258789,4539.975
401.183929443,4621.175
401.47756958,4506.6
401.771240234,4321.975
402.064880371,4320.7
402.35848999,4375.0
402.652130127,4280.075
402.945678711,4355.275
403.239257812,4304.825
403.532775879,4248.275
403.82635498,4304.525
404.119842529,4221.9
404.413360596,4200.425
404.706848145,4252.325
405.000274658,4195.025
405.293762207,4257.75
405.587188721,4328.0
405.880584717,4169.975
406.17401123,4004.8
406.467407227,3839.0
406.760742188,3832.35
407.054107666,3862.15
407.347442627,3805.825
407.640716553,3790.125
407.934051514,3840.75
408.227325439,3890.6
408.520568848,4098.475
408.813842773,4174.85
409.107086182,3998.9
409.400238037,3951.575
409.693450928,3882.575
409.986633301,4011.3
410.279754639,3928.9
410.572875977,3666.025
410.86605835,3601.55
411.159118652,3616.55
411.452209473,3623.625
411.745330811,3492.425
412.038360596,3433.225
412.331390381,3467.55
412.624420166,3489.75
412.917388916,3426.15
413.210388184,3265.125
413.503387451,3233.75
413.796295166,3151.575
414.089233398,2993.575
414.382141113,2918.85
414.675048828,2913.475
414.967926025,2921.8
415.260803223,2892.5
415.55368042,2912.3
415.846466064,2880.7
416.139282227,2947.225
416.432098389,3057.9
416.724853516,3041.475
417.017608643,2992.8
417.31036377,3006.0
417.603088379,3127.6
417.895782471,3092.85
418.188476562,3073.175
418.481140137,3143.225
418.773803711,3173.675
419.066436768,3147.575
419.359039307,3227.275
419.651641846,3227.875
419.944244385,3218.8
420.236816406,3181.625
420.529327393,3377.9
420.821899414,3430.4
421.114379883,3375.1
421.406860352,3611.775
421.699371338,3789.05
421.991821289,3773.675
422.284240723,3580.4
422.576721191,3453.525
422.869110107,3349.05
423.161468506,3312.725
423.453857422,3349.125
423.74621582,3237.55
424.038543701,3118.375
424.330871582,3092.1
424.623168945,3026.575
424.915435791,3151.325
425.207702637,3118.725
425.499969482,3073.45
425.792205811,3016.75
426.084411621,2798.85
426.376617432,2875.725
426.668762207,2934.3
426.9609375,2825.775
427.253082275,2921.45
427.545196533,3295.975
427.837310791,3036.775
428.129425049,2789.4
428.421447754,2984.125
428.713531494,2979.825
429.005554199,2981.725
429.297576904,2965.925
429.589599609,3352.025
429.881561279,3651.6
430.173522949,3455.6
430.465484619,3390.4
430.757415771,3472.675
431.049316406,3268.125
431.341186523,3061.25
431.633117676,2980.675
431.924957275,2700.425
432.21673584,2606.875
432.508636475,2731.675
432.800415039,2756.875
433.092163086,2676.85
433.383972168,2642.025
433.675689697,3258.675
433.967437744,3704.125
434.259155273,2862.6
434.550872803,2591.4
434.842498779,2632.75
435.134185791,2742.25
435.425842285,2760.075
435.717437744,2682.2
436.009063721,2513.7
436.30065918,2632.875
436.592224121,2943.975
436.883758545,2779.675
437.175323486,2545.025
437.466827393,2515.075
437.758331299,2530.45
438.049804688,2553.4
438.341247559,2607.8
438.63269043,2672.175
438.924163818,2664.45
439.215515137,2623.05
439.50692749,2545.975
439.798309326,2542.9
440.089660645,2554.75
440.380981445,2480.075
440.672332764,2460.975
440.963623047,2703.825
441.254882812,3108.125
441.546173096,3274.75
441.837402344,3053.975
442.128631592,2875.85
442.41986084,2859.25
442.711029053,2748.8
443.002197266,2813.775
443.293365479,2965.775
443.584503174,3097.65
443.875610352,3078.6
444.166717529,2832.225
444.457794189,2891.475
444.748840332,2877.925
445.039916992,2831.725
445.330932617,2921.65
445.621948242,2775.85
445.912963867,2610.95
446.203918457,2814.35
446.494812012,3023.25
446.785827637,2816.45
447.076721191,2666.525
447.367584229,2654.375
447.658447266,2619.75
447.949371338,2685.725
448.24017334,2572.8
448.530975342,2514.975
448.821838379,2654.3
449.112579346,2732.725
449.40335083,2657.125
449.694152832,2693.425
449.984863281,2700.25
450.27557373,2623.625
450.56628418,2690.15
450.856933594,2710.775
451.147583008,2567.175
451.438262939,2469.25
451.728881836,2656.425
452.019470215,2726.125
452.310089111,2553.825
452.600646973,2570.2
452.891174316,2623.45
453.181732178,2471.45
453.472229004,2348.725
453.762695312,2447.075
454.053222656,2479.45
454.343658447,2363.35
454.634063721,2308.675
454.924530029,2466.225
455.214935303,2590.475
455.505279541,2631.075
455.795715332,2532.65
456.086029053,2333.625
456.376312256,2342.475
456.666687012,2380.95
456.956939697,2441.475
457.247192383,2450.975
457.537445068,2510.6
457.827728271,2674.6
458.117919922,2620.8
458.408081055,2549.6
458.698303223,2712.325
458.988433838,2656.625
459.278564453,2498.975
459.568725586,2745.875
459.858825684,2853.975
460.148864746,2568.625
460.438995361,2541.1
460.729034424,2586.675
461.019042969,2582.9
461.309082031,2766.725
461.599060059,2660.925
461.889007568,2250.9
462.179016113,2092.225
462.468933105,2321.35
462.75881958,2406.15
463.048736572,2177.0
463.338592529,2423.85
463.628448486,2734.5
463.918365479,2462.65
464.2081604,2623.125
464.497924805,2591.875
464.787780762,2690.65
465.077514648,2966.225
465.367218018,2612.475
465.657012939,2804.225
465.946685791,3165.25
466.236358643,2811.2
466.526092529,2335.95
466.815734863,2355.225
467.105316162,2279.95
467.394927979,2314.675
467.684570312,2186.875
467.974121094,2264.4
468.263671875,2354.6
468.553222656,2164.0
468.842773438,2079.075
469.132232666,1975.1
469.42175293,2001.475
469.711212158,1977.4
470.000640869,1870.2
470.290100098,1912.55
470.579498291,1953.425
470.868835449,1936.975
471.158294678,1912.9
471.447601318,1896.7
471.736907959,1964.2
472.026275635,2015.525
472.315551758,2013.525
472.604797363,1997.125
472.894104004,2094.675
473.183319092,2212.975
473.47253418,2192.4
473.761779785,2184.025
474.05090332,2132.25
474.340087891,2083.85
474.629241943,2024.025
474.918365479,2180.075
475.207427979,2422.325
475.496551514,2439.25
475.785614014,2200.525
476.074645996,2029.225
476.363708496,2105.15
476.652679443,2246.025
476.941650391,2079.725
477.230682373,1937.875
477.519622803,1946.0
477.808502197,2077.625
478.097412109,2310.525
478.386352539,2271.025
478.675201416,2045.725
478.964050293,1947.875
479.25289917,2108.6
479.541717529,2160.6
479.830474854,2020.775
480.11932373,2313.85
480.408050537,2484.075
480.696777344,2138.45
480.985534668,2037.0
481.274200439,2107.575
481.562866211,2329.075
481.851593018,2346.525
482.140197754,2281.8
482.428833008,2146.25
482.717468262,1968.45
483.006011963,1989.55
483.294586182,2098.65
483.5831604,2137.825
483.871673584,2014.275
484.16015625,2142.2
484.448699951,2346.75
484.7371521,2395.325
485.02557373,2400.5
485.314025879,2151.3
485.602416992,3316.675
485.890777588,11888.925
486.179199219,10639.3
486.467559814,2827.8
486.755859375,2054.275
487.044219971,2400.625
487.332519531,2561.05
487.620758057,2199.35
487.908966064,1969.825
488.197265625,1791.325
488.485473633,1710.475
488.773651123,1791.125
489.061859131,1804.775
489.350006104,1754.85
489.638122559,1702.7
489.926300049,1721.125
490.214355469,1677.325
490.502441406,1621.35
490.790527344,1575.925
491.078552246,1742.65
491.366546631,1746.75
491.654602051,1535.25
491.942565918,1609.2
492.230499268,1635.725
492.518493652,1602.1
492.806396484,1628.525
493.094268799,1562.25
493.382202148,1589.575
493.670074463,1695.55
493.957885742,1550.025
494.245727539,1552.55
494.533508301,1692.175
494.821289062,1594.875
495.109100342,1457.15
495.396850586,1425.4
495.684539795,1369.875
495.972290039,1572.125
496.25994873,1857.75
496.547607422,1869.725
496.835296631,1718.85
497.122894287,1426.6
497.410522461,1359.675
497.6980896,1360.2
497.985687256,1332.525
498.273223877,1422.35
498.560760498,1485.375
498.848266602,1496.45
499.135772705,1465.825
499.423217773,1514.825
499.710693359,1613.425
499.998138428,1545.725
500.285522461,1416.225
500.572937012,1330.225
500.860290527,1385.675
501.147644043,1465.95
501.434997559,1658.9
501.722290039,1554.625
502.00958252,1354.35
502.296875,1578.575
502.584106445,1566.35
502.871337891,1407.7
503.158599854,1472.925
503.445770264,1542.1
503.732910156,1518.55
504.020141602,1357.3
504.307220459,1337.275
504.594329834,1370.975
504.881469727,1311.325
505.168518066,1382.525
505.455535889,1432.275
505.742614746,1322.75
506.029632568,1281.875
506.316589355,1436.25
506.603637695,1504.25
506.890563965,1336.35
507.177459717,1202.7
507.464385986,1123.175
507.751312256,1318.625
508.038146973,1384.05
508.325012207,1274.65
508.611877441,1319.725
508.898681641,1319.375
509.185424805,1180.6
509.472259521,1151.3
509.759002686,1219.85
510.045715332,1250.35
510.332458496,1201.125
510.619140625,1260.625
510.905761719,1180.875
511.192504883,1175.975
511.479095459,1216.7
511.765686035,1156.1
512.052307129,1102.575
512.338928223,1055.2
512.625427246,1100.625
512.91204834,1144.8
513.198486328,1127.225
513.484985352,1099.45
513.77142334,1042.775
514.057922363,1078.675
514.344299316,1075.7
514.63079834,1038.025
514.917175293,1028.7
515.203552246,952.725
515.489868164,923.75
515.776245117,1035.925
516.0625,1063.925
516.348815918,993.9
516.635070801,1022.175
516.921325684,1064.975
517.207580566,1018.175
517.493774414,938.3
517.779968262,951.525
518.066101074,971.675
518.352294922,930.05
518.638366699,938.35
518.924499512,1000.125
519.210632324,1065.825
519.496643066,1032.075
519.782714844,958.075
520.068786621,926.075
520.354736328,888.15
520.640686035,854.55
520.926757812,893.25
521.212646484,956.925
521.498535156,967.825
521.784484863,917.775
522.0703125,862.525
522.356262207,870.3
522.642089844,943.2
522.927856445,934.9
523.213684082,932.15
523.499511719,921.275
523.78527832,956.875
524.070983887,998.05
524.356750488,982.1
524.64239502,951.35
524.928039551,931.125
525.213806152,957.15
525.499389648,942.325
525.784973145,967.775
526.070617676,1002.5
526.356140137,975.25
526.641723633,984.475
526.927307129,1040.675
527.212768555,1042.625
527.498291016,1019.475
527.783752441,1021.625
528.069213867,1003.175
528.354675293,1026.4
528.640014648,1161.975
528.925476074,1216.375
529.21081543,1147.375
529.496154785,1126.9
529.781555176,1098.275
530.066833496,1123.625
530.352050781,1136.6
530.637390137,1119.975
530.922607422,1118.325
531.207824707,1119.275
531.493041992,1113.1
531.778198242,1162.475
532.063354492,1145.5
532.348571777,1097.85
532.633666992,1121.125
532.918762207,1183.45
533.203857422,1252.225
533.488891602,1274.125
533.773925781,1229.45
534.059020996,1197.55
534.343933105,1233.35
534.628967285,1213.825
534.91394043,1213.15
535.198852539,1236.6
535.483703613,1214.825
535.768676758,1158.975
536.053527832,1163.95
536.338317871,1139.6
536.62322998,1077.6
536.90802002,1061.15
537.192810059,1080.65
537.477539062,1136.975
537.762329102,1173.125
538.047058105,1215.0
538.331726074,1239.425
538.616455078,1228.4
538.901123047,1200.05
539.18572998,1245.95
539.470397949,1252.775
539.755004883,1235.1
540.039550781,1202.75
540.32409668,1170.425
540.608703613,1206.825
540.893188477,1283.225
541.17767334,1292.2
541.462158203,1302.3
541.746643066,1260.75
542.031066895,1287.175
542.315429688,1327.0
542.59979248,1320.025
542.884216309,1318.525
543.168579102,1305.35
543.452941895,1314.75
543.737243652,1351.775
544.021484375,1399.575
544.305725098,1384.85
544.590026855,1370.6
544.874267578,1377.525
545.158447266,1434.7
545.442626953,1364.825
545.726806641,1275.925
546.010925293,1310.0
546.29510498,1337.0
546.579162598,1327.1
546.863220215,1351.025
547.147277832,1415.075
547.431335449,1479.525
547.715332031,1524.025
547.999328613,1625.125
548.283325195,1641.775
548.567260742,1502.3
548.851135254,1482.075
549.135070801,1457.0
549.419006348,1384.65
549.702819824,1461.375
549.986755371,1518.35
550.270507812,1494.275
550.554321289,1535.25
550.83807373,1550.375
551.121826172,1497.25
551.405517578,1520.5
551.689331055,1606.775
551.973022461,1792.3
552.256652832,1861.55
552.540344238,1775.525
552.823974609,1751.575
553.107543945,1749.875
553.391174316,1795.825
553.674743652,1829.825
553.958251953,1843.4
554.241821289,1849.3
554.525268555,1802.3
554.808776855,1812.275
555.092285156,1961.7
555.375671387,2034.975
555.659057617,2023.85
555.942504883,2042.55
556.225891113,2074.4
556.509216309,2047.025
556.792541504,1964.375
557.075866699,2032.525
557.359130859,2064.425
557.64239502,2066.05
557.92565918,2133.65
558.208862305,2114.8
558.49206543,2056.2
558.77532959,2066.7
559.058410645,2105.125
559.341552734,2084.525
559.624694824,2146.65
559.907775879,2205.55
560.190856934,2305.375
560.473937988,2310.575
560.756896973,2336.875
561.039978027,2377.575
561.322937012,2322.1
561.605895996,2319.575
561.88885498,2300.825
562.171813965,2303.4
562.454650879,2300.425
562.737548828,2319.625
563.020446777,2385.075
563.303283691,2402.825
563.58605957,2425.4
563.868896484,2441.425
564.151672363,2479.925
564.434387207,2512.675
564.717163086,2491.35
564.99987793,2525.4
565.282531738,2579.675
565.565185547,2523.575
565.847839355,2528.85
566.130432129,2646.275
566.413085938,2618.8
566.695678711,2641.575
566.978149414,2726.525
567.260681152,2874.7
567.543273926,2925.875
567.825744629,2833.15
568.108154297,2861.65
568.390686035,2978.15
568.673095703,3085.7
568.955505371,3123.65
569.237854004,3144.075
569.520202637,3387.25
569.802490234,3561.675
570.084838867,3535.0
570.367126465,3409.6
570.649414062,3422.475
570.93170166,3725.625
571.213928223,3787.775
571.496154785,3582.65
571.778381348,3771.725
572.06048584,4012.3
572.342590332,3612.65
572.624755859,3318.725
572.906860352,3369.275
573.188903809,3954.0
573.470947266,4172.65
573.752990723,3964.2
574.03503418,4069.875
574.317016602,4403.65
574.598937988,4218.225
574.88092041,4101.65
575.162841797,4276.25
575.444763184,3955.025
575.726623535,3738.7
576.008483887,3747.525
576.290344238,4135.875
576.572143555,4295.45
576.853881836,4366.6
577.135681152,4287.025
577.417419434,4308.425
577.699157715,5090.925
577.980895996,5230.3
578.262573242,4673.525
578.544128418,4245.2
578.825866699,4195.35
579.107421875,3923.725
579.388977051,4109.65
579.670593262,4425.325
579.952148438,4306.775
580.233642578,4402.975
580.515197754,4507.65
580.796691895,4234.125
581.078125,4390.025
581.359619141,5725.4
581.640991211,5824.55
581.922363281,5019.2
582.203796387,5066.175
582.485107422,4754.4
582.766418457,4405.4
583.047790527,4278.525
583.329040527,4173.5
583.610290527,4068.175
583.891540527,4165.475
584.172790527,4441.425
584.453918457,4465.1
584.735107422,4510.625
585.016235352,4910.75
585.297363281,4886.4
585.578552246,4712.05
585.859619141,4663.525
586.140625,4464.45
586.421630859,4328.325
586.702697754,4379.775
586.983642578,4572.45
587.264648438,4731.9
587.545654297,4693.1
587.826477051,4630.325
588.107421875,4491.425
588.388305664,4535.425
588.669189453,4606.7
588.950012207,4476.25
589.230834961,4395.3
589.511657715,4470.55
589.792358398,4562.825
590.073120117,4576.2
590.353881836,4540.875
590.63458252,4563.575
590.915283203,4529.5
591.195922852,4509.975
591.4765625,4573.35
591.757202148,4606.025
592.037780762,4593.125
592.31829834,4613.7
592.598937988,4792.275
592.879394531,4954.35
593.159912109,4860.75
593.440429688,4822.725
593.720825195,4801.975
594.001281738,4790.625
594.281677246,4738.025
594.562072754,4747.025
594.842407227,4849.525
595.122802734,4883.275
595.403137207,4865.725
595.683410645,4838.1
595.963623047,4830.625
596.243896484,4800.85
596.524169922,4788.875
596.804382324,4814.2
597.084533691,4827.05
597.364746094,4868.5
597.644836426,4893.575
597.924987793,4878.075
598.205078125,4854.2
598.485107422,4882.55
598.765197754,4984.35
599.045227051,5039.425
599.325195312,4984.9
599.605224609,4941.5
599.885192871,4975.425
600.165100098,5009.875
600.445007324,4966.7
600.724914551,4970.45
601.004760742,4978.05
601.284667969,5009.35
601.56451416,4991.15
601.844238281,4990.275
602.124084473,4976.9
602.403808594,4994.075
602.683532715,5027.325
602.963256836,5014.525
603.242919922,5058.25
603.522583008,5115.575
603.802246094,5081.575
604.081848145,5062.525
604.36138916,5046.4
604.641052246,5067.375
604.920532227,5042.325
605.200073242,5093.625
605.479614258,5112.4
605.759094238,5136.35
606.038574219,5145.9
606.317932129,5070.475
606.597412109,5079.95
606.87677002,5098.575
607.15612793,5113.575
607.435546875,5139.35
607.714782715,5127.9
607.99407959,5104.675
608.273376465,5098.1
608.552612305,5134.675
608.831848145,5129.6
609.111083984,5129.325
609.390258789,5105.175
609.669433594,5123.0
609.948608398,5183.9
610.227722168,5166.425
610.506713867,5110.575
610.785888672,5144.65
611.064880371,5114.2
611.34387207,5138.225
611.622924805,5143.525
611.901916504,5142.175
612.180847168,5084.925
612.459777832,5090.075
612.738647461,5098.4
613.01751709,5083.475
613.296447754,5028.8
613.575317383,5011.0
613.854064941,4949.575
614.132873535,4894.2
614.411621094,4830.95
614.690368652,4794.425
614.969177246,4759.675
615.247802734,4682.625
615.526489258,4679.0
615.805175781,4564.45
616.08380127,4456.325
616.362365723,4393.05
616.640991211,4342.875
616.919555664,4304.55
617.198059082,4415.175
617.4765625,4673.9
617.755126953,4782.575
618.033569336,4825.325
618.311950684,4820.3
618.590454102,4807.5
618.868774414,4789.025
619.147155762,4793.8
619.425598145,4782.425
619.703857422,4803.25
619.982177734,4805.25
620.260498047,4783.75
620.538757324,4783.85
620.816955566,4741.5
621.095214844,4717.725
621.373413086,4742.075
621.651550293,4803.175
621.929748535,4813.925
622.207824707,4808.2
622.485900879,4826.75
622.764038086,4812.925
623.042053223,4857.675
623.320007324,4863.175
623.598083496,4873.175
623.876037598,4855.125
624.153991699,4888.4
624.432006836,4898.6
624.709838867,4905.275
624.987731934,4883.75
625.265563965,4896.9
625.543395996,4924.375
625.821228027,4957.725
626.098999023,4952.1
626.376831055,5000.975
626.654541016,5012.05
626.932250977,5056.9
627.209960938,5088.775
627.487670898,5118.075
627.765319824,5122.475
628.04296875,5130.95
628.320495605,5129.925
628.598083496,5129.075
628.875671387,5156.5
629.153259277,5200.225
629.430725098,5254.375
629.708251953,5256.45
629.985656738,5276.25
630.263122559,5287.075
630.540588379,5327.675
630.817932129,5333.65
631.095275879,5374.7
631.372680664,5403.15
631.649963379,5446.55
631.927246094,5498.175
632.204589844,5527.55
632.481811523,5587.75
632.759033203,5655.025
633.036254883,5682.9
633.313415527,5749.75
633.590576172,5825.375
633.867736816,5916.625
634.144836426,5968.125
634.421875,6039.65
634.698913574,6076.0
634.976013184,6091.8
635.252990723,6174.0
635.529968262,6210.85
635.807006836,6287.0
636.08392334,6257.175
636.360839844,6198.1
636.637756348,6070.675
636.914611816,6042.4
637.191467285,6049.775
637.468261719,6126.825
637.745056152,6084.15
638.021789551,6109.375
638.298583984,6093.55
638.575317383,6162.45
638.851989746,6149.3
639.12878418,6166.05
639.405395508,6144.75
639.682006836,6197.1
639.958618164,6213.175
640.235229492,6162.425
640.511779785,6212.225
640.788330078,6189.575
641.064880371,6200.175
641.341308594,6171.55
641.617797852,6189.0
641.894226074,6189.55
642.170654297,6201.325
642.44708252,6200.9
642.723388672,6205.525
642.999755859,6194.025
643.276123047,6208.875
643.552429199,6177.1
643.828674316,6192.65
644.104919434,6179.4
644.381164551,6165.175
644.657348633,6159.3
644.933532715,6135.975
645.209716797,6129.8
645.485839844,6143.05
645.761901855,6141.7
646.038024902,6127.675
646.314086914,6166.475
646.590087891,6149.875
646.866149902,6182.2
647.142150879,6154.1
647.41809082,6108.275
647.694030762,6123.875
647.969970703,6105.575
648.245788574,6122.925
648.521728516,6133.35
648.797546387,6129.375
649.073303223,6140.1
649.349182129,6097.475
649.624938965,6105.825
649.900634766,6096.575
650.176391602,6097.375
650.452087402,6079.875
650.727783203,6066.2
651.003479004,6096.925
651.279052734,6080.225
651.554626465,6080.2
651.83026123,6068.375
652.105773926,6078.425
652.381286621,6035.375
652.656860352,6055.775
652.932312012,6083.225
653.207763672,6066.925
653.483215332,6109.2
653.758605957,6090.575
654.033935547,6097.575
654.309326172,6095.8
654.584716797,6096.525
654.859985352,6079.4
655.135253906,6112.075
655.410583496,6136.025
655.685791016,7032.25
655.9609375,11018.725
656.236206055,10802.4
656.511291504,7132.3
656.786437988,6277.225
657.061645508,6144.25
657.336669922,6135.05
657.611694336,6169.55
657.886779785,6177.6
658.161804199,6230.3
658.436828613,6172.475
658.711791992,6180.0
658.986755371,6200.7
659.261657715,6218.35
659.536621094,6212.575
659.811401367,6216.1
660.086303711,6244.7
660.36114502,6235.25
660.635864258,6221.05
660.910644531,6277.425
661.185424805,6269.675
661.460205078,6283.95
661.734863281,6275.7
662.009521484,6273.4
662.284179688,6274.125
662.558776855,6309.45
662.833435059,6345.3
663.108032227,6338.2
663.382568359,6316.5
663.657043457,6373.275
663.93157959,6388.25
664.206054688,6361.6
664.48046875,6415.325
664.755004883,6418.05
665.02935791,6430.75
665.303710938,6450.275
665.578125,6456.625
665.852416992,6482.7
666.126708984,6445.35
666.401062012,6464.675
666.675292969,6523.3
666.949462891,6501.125
667.223754883,6496.575
667.497924805,6520.85
667.772094727,6546.625
668.046264648,6516.175
668.3203125,6573.275
668.594421387,6585.1
668.868469238,6592.65
669.14251709,6619.325
669.416503906,6624.5
669.690551758,6627.875
669.964477539,6636.7
670.23840332,6643.45
670.512329102,6619.95
670.786254883,6617.5
671.060058594,6669.15
671.333984375,6674.8
671.607788086,6695.425
671.881530762,6682.45
672.155334473,6713.775
672.429077148,6709.0
672.702758789,6708.75
672.97644043,6718.525
673.25012207,6706.2
673.523742676,6693.5
673.797302246,6697.95
674.070922852,6768.25
674.344482422,6774.675
674.618041992,6750.725
674.891601562,6774.225
675.165100098,6777.35
675.438476562,6759.3
675.711975098,6765.425
675.985412598,6754.625
676.258789062,6740.45
676.532165527,6790.375
676.805480957,6781.25
677.078796387,6779.25
677.352111816,6810.65
677.625366211,6772.025
677.898620605,6775.0
678.171875,6826.975
678.445007324,6815.825
678.718200684,6838.1
678.991394043,6825.75
679.264404297,6815.1
679.537536621,6846.45
679.81060791,6868.725
680.083679199,6842.0
680.356689453,6868.525
680.629699707,6856.225
680.902648926,6824.775
681.175598145,6880.375
681.448547363,6893.625
681.721435547,6862.55
681.99420166,6875.675
682.267150879,6860.45
682.539916992,6903.35
682.812744141,6894.025
683.085510254,6872.6
683.358215332,6872.725
683.63092041,6868.875
683.903625488,6866.65
684.176330566,6853.375
684.448913574,6858.55
684.721557617,6832.8
684.99420166,6874.825
685.266662598,6863.925
685.539245605,6880.75
685.811767578,6880.325
686.084289551,6896.2
686.356689453,6911.525
686.629150391,6931.7
686.901550293,6955.825
687.17401123,6937.25
687.446350098,6953.25
687.718688965,6948.925
687.990966797,6978.7
688.263305664,6991.925
688.535522461,6949.4
688.807739258,6952.45
689.079956055,7008.1
689.352172852,7010.925
689.624328613,6988.4
689.896484375,7015.25
690.168518066,6985.25
690.440612793,7060.425
690.71270752,7040.9
690.984741211,7042.35
691.256713867,7047.625
691.528747559,7034.4
691.800720215,7047.1
692.072631836,7058.175
692.344543457,7101.525
692.616394043,7095.625
692.888244629,7065.875
693.160095215,7103.375
693.431945801,7127.95
693.703674316,7097.7
693.975463867,7068.75
694.247131348,7093.625
694.518859863,7078.325
694.790588379,7115.7
695.062255859,7107.975
695.33380127,7072.475
695.60546875,7076.9
695.87701416,7108.1
696.148498535,7083.125
696.42010498,7096.025
696.691589355,7132.2
696.96307373,7127.55
697.234558105,7144.2
697.50592041,7128.45
697.777282715,7140.0
698.048706055,7121.9
698.320068359,7148.925
698.591308594,7125.525
698.862670898,7111.75
699.133972168,7131.8
699.405151367,7122.425
699.676391602,7154.225
699.947570801,7132.225
700.21875,7125.325
700.489868164,7138.725
700.761047363,7153.4
701.032104492,7162.3
701.303100586,7095.35
701.57421875,7154.55
701.845214844,7142.075
702.116149902,7158.05
702.387207031,7131.475
702.65814209,7154.45
702.928955078,7170.775
703.199951172,7124.075
703.47076416,7096.9
703.741577148,7092.4
704.012451172,7103.7
704.28314209,7123.875
704.553955078,7097.425
704.824707031,7132.2
705.095397949,7131.875
705.366027832,7118.25
705.63671875,7099.075
705.907348633,7094.825
706.17791748,7078.95
706.448486328,7096.8
706.719055176,7095.775
706.989562988,7105.225
707.260131836,7076.925
707.530517578,7085.4
707.800964355,7095.625
708.071411133,7057.35
708.341796875,7038.425
708.612182617,7043.375
708.882446289,7010.675
709.152893066,7028.05
709.423156738,7011.45
709.693359375,6972.475
709.963623047,6991.725
710.233825684,7021.375
710.503967285,6971.025
710.774169922,6978.7
711.044311523,6947.8
711.31439209,6923.725
711.584533691,6955.325
711.854553223,6926.35
712.124572754,6931.35
712.39465332,6886.925
712.664611816,6913.6
712.934509277,6956.675
713.204467773,6913.325
713.474365234,6913.275
713.74420166,6906.0
714.014099121,6911.675
714.283874512,6891.675
714.553710938,6896.8
714.823486328,6885.975
715.093200684,6837.475
715.362915039,6872.675
715.632629395,6829.3
715.902282715,6819.875
716.171875,6806.075
716.441589355,6809.55
716.711181641,6748.675
716.980712891,6770.975
717.250244141,6727.5
717.519775391,6759.625
717.78918457,6761.0
718.058654785,6774.675
718.328125,6775.25
718.597473145,6712.55
718.866882324,6709.975
719.136230469,6730.55
719.405578613,6713.675
719.674865723,6723.375
719.944152832,6686.45
720.213439941,6666.8
720.48260498,6667.6
720.75177002,6684.55
721.020996094,6649.25
721.290100098,6617.325
721.559204102,6617.125
721.828308105,6615.8
722.097351074,6605.8
722.366455078,6564.9
722.635437012,6550.1
722.904418945,6518.5
723.173400879,6548.25
723.442321777,6543.4
723.711181641,6504.375
723.980102539,6534.075
724.248962402,6524.975
724.51776123,6480.3
724.786560059,6475.65
725.055358887,6477.2
725.324035645,6449.825
725.592834473,6418.05
725.86151123,6421.0
726.130187988,6423.525
726.398803711,6380.575
726.667419434,6367.65
726.935974121,6356.7
727.204528809,6289.075
727.473083496,6313.675
727.741638184,6273.35
728.010070801,6243.325
728.278564453,6220.075
728.546936035,6218.5
728.815368652,6158.2
729.08380127,6108.3
729.352111816,6085.55
729.620361328,6007.825
729.88873291,6040.825
730.156982422,6069.425
730.425231934,6031.475
730.693481445,6020.025
730.961669922,6053.725
731.229797363,6063.175
731.49798584,6080.9
731.766113281,6100.9
732.034118652,6131.45
732.302246094,6173.475
732.570251465,6172.1
732.838256836,6181.175
733.106262207,6216.3
733.374145508,6217.075
733.642089844,6239.05
733.909973145,6273.5
734.177856445,6319.8
734.445678711,6344.8
734.713562012,6395.475
734.981323242,6385.275
735.249084473,6415.7
735.516845703,6531.025
735.784545898,6550.225
736.052185059,6556.475
736.319885254,6625.3
736.587524414,6652.95
736.855102539,6686.1
737.122619629,6743.8
737.390197754,6755.025
737.657714844,6806.525
737.925170898,6820.625
738.192749023,6890.775
738.460144043,6927.05
738.727539062,6966.025
738.994995117,7023.525
739.262329102,7039.775
739.529663086,7111.125
739.79699707,7092.3
740.06427002,7149.475
740.331481934,7191.75
740.598754883,7193.775
740.865905762,7199.175
741.133056641,7290.3
741.40032959,7292.25
741.667358398,7372.25
741.934448242,7323.175
742.201599121,7341.525
742.468566895,7383.725
742.735534668,7422.775
743.002563477,7422.75
743.26953125,7421.275
743.536437988,7446.825
743.803405762,7507.775
744.0703125,7471.9
744.337097168,7518.425
744.604003906,7432.75
744.870727539,7484.3
745.137512207,7524.325
745.40423584,7513.9
745.670959473,7484.475
745.93762207,7491.0
746.204284668,7455.375
746.470947266,7473.675
746.737548828,7445.5
747.004089355,7454.25
747.270751953,7467.025
747.53717041,7482.825
747.803710938,7398.025
748.070251465,7398.575
748.336608887,7387.425
748.603027344,7365.45
748.869445801,7359.775
749.135803223,7344.55
749.402099609,7360.15
749.668457031,7340.975
749.934753418,7287.725
750.20098877,7259.15
750.467224121,7302.475
750.733459473,7244.4
750.999572754,7193.4
751.26574707,7174.75
751.531860352,7172.575
751.797912598,7134.425
752.064025879,7107.425
752.330078125,7087.25
752.596069336,7063.8
752.862060547,7048.725
753.127990723,7023.35
753.393920898,6999.625
753.659912109,6949.875
753.925720215,6952.55
754.19152832,6920.1
754.457397461,6887.425
754.723144531,6867.65
754.988952637,6829.625
755.254699707,6812.95
755.520385742,6833.4
755.786071777,6805.875
756.051696777,6773.75
756.317382812,6751.4
756.582946777,6707.725
756.848510742,6708.7
757.114074707,6675.225
757.379577637,6657.225
757.645080566,6682.225
757.910583496,6630.725
758.175964355,6581.975
758.441345215,6579.175
758.706848145,6500.15
758.972106934,6488.0
759.237426758,6484.375
759.502807617,6509.1
759.768005371,6497.15
760.03326416,6447.125
760.298522949,6410.2
760.563659668,6431.6
760.828857422,6386.425
761.093994141,6395.725
761.359130859,6355.25
761.624206543,6349.35
761.889282227,6301.2
762.15423584,6280.2
762.419250488,6271.0
762.684265137,6246.95
762.949157715,6212.975
763.214050293,6191.6
763.479003906,6167.075
763.743835449,6150.9
764.008666992,6119.0
764.2734375,6123.8
764.538208008,6128.275
764.802978516,6153.175
765.067687988,6097.9
765.332397461,6090.9
765.597045898,6057.1
765.861694336,6066.85
766.126342773,6029.6
766.390930176,5987.85
766.655395508,5983.9
766.920043945,5937.725
767.184509277,5952.85
767.448974609,5956.675
767.713439941,5924.525
767.977783203,5882.7
768.2421875,5901.75
768.506591797,5874.8
768.770874023,5919.775
769.03515625,5881.35
769.299499512,5874.575
769.563720703,5884.425
769.827941895,5813.35
770.092163086,5808.075
770.356323242,5807.225
770.620483398,5823.325
770.88458252,5796.0
771.148681641,5798.725
771.412719727,5794.775
771.676757812,5799.55
771.940734863,5748.25
772.204711914,5748.35
772.468688965,5752.6
772.73260498,5725.275
772.996459961,5741.75
773.260314941,5085.675
773.524169922,694.15
773.787963867,138.8
774.051696777,123.525
774.315551758,119.225
774.579223633,118.475
774.842895508,120.1
775.106567383,124.575
775.370239258,117.85
775.633789062,124.45
775.897399902,123.4
776.160949707,118.95
776.424499512,122.275
776.687988281,122.175
776.951477051,124.85
777.214904785,121.1
777.47833252,120.75
