191.299911499,100.825
191.603515625,101.1
191.907119751,93.025
192.210693359,103.625
192.514251709,96.475
192.817810059,102.05
193.121368408,100.85
193.42489624,103.775
193.728408813,95.55
194.031936646,97.775
194.33543396,92.75
194.638916016,109.075
194.94241333,94.775
195.245880127,97.675
195.549331665,93.45
195.852767944,99.975
196.156204224,183.625
196.459625244,175.75
196.763015747,179.95
197.066436768,183.95
197.369812012,177.85
197.673187256,179.875
197.9765625,173.825
198.279922485,175.7
198.583251953,171.775
198.886581421,179.1
199.18989563,185.725
199.493209839,183.425
199.79649353,173.675
200.09979248,186.2
200.403076172,179.65
200.706314087,181.075
201.009567261,178.325
201.312820435,182.325
201.616027832,169.65
201.919235229,166.225
202.222457886,172.675
202.525634766,178.45
202.828826904,170.1
203.132003784,168.4
203.435150146,171.825
203.738296509,169.775
204.041412354,170.55
204.344558716,172.275
204.647659302,176.575
204.950759888,176.5
205.253845215,174.85
205.556930542,171.275
205.859985352,171.925
206.163024902,171.5
206.466079712,173.475
206.769104004,181.525
207.072113037,175.975
207.375137329,172.6
207.678131104,175.975
207.981109619,177.875
208.284088135,173.675
208.587036133,179.65
208.889984131,175.25
209.19291687,182.9
209.495849609,181.125
209.798751831,178.975
210.101654053,175.825
210.404556274,180.875
210.707427979,177.0
211.010269165,191.75
211.31312561,185.1
211.615982056,182.45
211.918807983,185.275
212.221618652,182.1
212.524429321,176.675
212.827224731,186.1
213.130004883,188.6
213.432769775,189.4
213.735534668,185.525
214.038269043,186.825
214.341003418,189.05
214.643737793,193.8
214.946456909,193.275
215.249145508,193.025
215.551834106,192.325
215.854507446,194.775
216.157165527,194.925
216.45980835,194.075
216.762451172,198.325
217.065078735,202.1
217.36769104,197.325
217.670303345,198.175
217.972885132,204.775
218.275466919,207.45
218.578048706,200.025
218.880599976,208.95
219.183120728,205.475
219.485656738,212.575
219.788192749,216.55
220.090682983,222.625
220.393188477,236.325
220.695663452,258.025
220.998138428,269.3
221.300582886,301.025
221.603042603,308.55
221.905487061,354.075
222.207901001,395.375
222.510299683,447.2
222.812728882,494.1
223.115097046,566.7
223.41746521,630.15
223.719848633,699.575
224.022171021,769.0
224.324508667,847.05
224.626846313,943.725
224.929168701,1026.025
225.231460571,1124.05
225.533737183,1206.025
225.836013794,1280.675
226.138290405,1373.1
226.440536499,1465.95
226.742767334,1546.8
227.044998169,1626.25
227.347213745,1683.875
227.649429321,1766.125
227.951629639,1809.35
228.253799438,1868.675
228.555953979,1935.725
228.858123779,1984.65
229.160263062,2030.1
229.462371826,2061.325
229.764511108,2116.625
230.066619873,2157.75
230.36869812,2192.525
230.670776367,2231.05
230.972854614,2267.95
231.274902344,2314.25
231.576950073,2360.475
231.878967285,2375.45
232.180999756,2434.2
232.48298645,2474.15
232.784988403,2522.95
233.086975098,2576.625
233.388946533,2614.525
233.69090271,2664.65
233.992858887,2697.875
234.294769287,2723.325
234.596694946,2760.75
234.898605347,2810.6
235.200500488,2819.0
235.502380371,2877.55
235.804244995,2895.125
236.106109619,2898.15
236.407958984,2927.425
236.709777832,2959.55
237.011581421,2997.25
237.313400269,2993.175
237.615203857,3023.6
237.916976929,3047.475
238.21875,3055.975
238.520507812,3087.5
238.822250366,3094.45
239.12399292,3092.975
239.425704956,3152.5
239.727401733,3150.125
240.02911377,3165.775
240.330780029,3177.1
240.632446289,3192.85
240.93409729,3229.3
241.23576355,3269.65
241.537384033,3290.825
241.839004517,3314.725
242.140594482,3343.75
242.442199707,3394.525
242.743774414,3417.8
243.045333862,3445.175
243.346923828,3487.325
243.648452759,3518.45
243.949966431,3544.5
244.251495361,3599.15
244.552993774,3631.325
244.854492188,3656.75
245.155975342,3687.4
245.457443237,3721.825
245.758880615,3739.35
246.060333252,3794.2
246.36177063,3817.225
246.66317749,3849.55
246.964569092,3859.95
247.265945435,3900.225
247.567337036,3950.375
247.86869812,3978.3
248.170059204,4038.625
248.471389771,4060.775
248.772705078,4128.6
249.074035645,4202.25
249.375335693,4259.825
249.676620483,4308.525
249.977890015,4397.45
250.279159546,4489.0
250.58039856,4578.475
250.881637573,4629.425
251.182876587,4714.725
251.484069824,4839.15
251.785263062,4885.35
252.086456299,5007.6
252.387619019,5082.55
252.688781738,5169.25
252.989929199,5273.6
253.291061401,5368.0
253.592178345,5451.45
253.893280029,5530.3
254.194366455,5610.075
254.49546814,5660.15
254.796524048,5692.15
255.097579956,5787.95
255.398620605,5819.05
255.699645996,5908.825
256.000640869,5923.25
256.30166626,5963.725
256.602661133,6037.5
256.903656006,6047.775
257.204589844,6048.7
257.505523682,6046.425
257.80645752,6082.025
258.107391357,6048.575
258.408294678,6073.575
258.709228516,6026.525
259.010070801,5989.7
259.310943604,5999.5
259.611846924,5936.95
259.912658691,5875.45
260.213500977,5859.65
260.514343262,5820.15
260.815124512,5740.525
261.115936279,5726.65
261.416717529,5681.4
261.717468262,5662.025
262.018218994,5607.45
262.318969727,5610.975
262.619689941,5626.35
262.920410156,5642.475
263.221130371,5692.075
263.521789551,5696.875
263.822479248,5729.175
264.123138428,5783.225
264.42376709,5758.6
264.72442627,5738.025
265.025054932,5760.45
265.325622559,5772.75
265.626251221,5714.225
265.926818848,5683.775
266.227386475,5648.075
266.527954102,5564.45
266.828460693,5576.25
267.12902832,5456.3
267.429534912,5432.775
267.730010986,5372.95
268.030517578,5299.5
268.330993652,5301.95
268.631439209,5237.4
268.931915283,5203.975
269.232299805,5153.425
269.532745361,5112.425
269.8331604,5068.0
270.133544922,5021.125
270.433929443,4991.05
270.734313965,4974.9
271.034637451,4976.225
271.334991455,4936.6
271.635314941,4965.775
271.935638428,4968.1
272.235931396,4995.7
272.536254883,5022.375
272.836486816,5075.875
273.136749268,5104.275
273.437011719,5191.775
273.737213135,5235.675
274.037445068,5297.625
274.337677002,5355.35
274.6378479,5424.05
274.938049316,5533.675
275.238220215,5610.75
275.538360596,5688.875
275.838500977,5732.675
276.138641357,5851.725
276.438751221,5878.825
276.738830566,5959.4
277.03894043,5996.375
277.338989258,6100.25
277.639038086,6166.1
277.939056396,6191.75
278.239105225,6238.225
278.539093018,6293.625
278.839141846,6305.05
279.139129639,6389.05
279.439086914,6432.425
279.739044189,6480.625
280.039001465,6514.9
280.338928223,6560.5
280.63885498,6584.0
280.938781738,6626.225
281.238647461,6660.875
281.538513184,6642.35
281.838409424,6678.55
282.138244629,6707.575
282.438079834,6702.65
282.737945557,6743.025
283.037719727,6722.9
283.337524414,6737.275
283.637298584,6757.95
283.937072754,6763.725
284.236816406,6759.5
284.536560059,6727.925
284.836303711,6741.525
285.136016846,6768.625
285.43572998,6761.4
285.735412598,6753.925
286.035064697,6746.5
286.334747314,6811.075
286.634368896,6788.4
286.933990479,6709.225
287.233642578,6669.525
287.533203125,6655.375
287.832824707,6591.775
288.132385254,6511.65
288.431945801,6394.175
288.731506348,6296.4
289.031036377,6133.95
289.330566406,6051.125
289.630065918,6042.425
289.92956543,5995.425
290.229034424,6067.675
290.528503418,6213.175
290.827941895,6323.125
291.127380371,6471.625
291.42678833,6548.35
291.726226807,6652.925
292.025604248,6673.925
292.324981689,6703.7
292.624359131,6731.175
292.923736572,6725.275
293.223052979,6724.975
293.522369385,6753.975
293.821685791,6694.1
294.12097168,6651.325
294.420257568,6645.65
294.719543457,6644.775
295.018768311,6628.0
295.318023682,6559.225
295.617248535,6519.9
295.916442871,6450.45
296.215667725,6417.875
296.514862061,6283.975
296.813995361,6111.85
297.11315918,5958.5
297.412322998,5821.25
297.711425781,5822.0
298.010559082,5942.425
298.309631348,6098.45
298.608734131,6280.55
298.907806396,6417.2
299.206848145,6556.7
299.505889893,6608.9
299.804901123,6714.625
300.103912354,6787.45
300.402954102,6825.925
300.701904297,6862.7
301.00088501,6933.725
301.299835205,6995.625
301.5987854,7013.975
301.897735596,7073.975
302.196624756,7149.225
302.495513916,7183.65
302.794403076,7223.2
303.093292236,7259.925
303.392120361,7312.65
303.690979004,7366.125
303.989837646,7391.775
304.288604736,7465.75
304.587402344,7423.975
304.886199951,7484.9
305.184967041,7519.15
305.483734131,7536.825
305.782501221,7591.0
306.081176758,7622.45
306.37991333,7629.875
306.678619385,7632.15
306.977294922,7670.225
307.275970459,7674.225
307.574645996,7661.075
307.873260498,7660.3
308.171875,7689.475
308.470489502,7686.6
308.769104004,7589.1
309.067687988,7618.575
309.366241455,7607.025
309.664794922,7585.3
309.963348389,7569.95
310.261871338,7583.075
310.560394287,7590.5
310.858856201,7591.2
311.157348633,7643.25
311.455810547,7643.475
311.754272461,7647.65
312.052703857,7731.9
312.351135254,7725.15
312.649536133,7734.95
312.947937012,7695.1
313.246307373,7746.55
313.544647217,7730.975
313.843017578,7695.0
314.141387939,7686.575
314.439697266,7710.925
314.738006592,7644.45
315.036315918,7579.075
315.334564209,7514.45
315.6328125,7468.5
315.931091309,7435.775
316.229309082,7309.7
316.527526855,7228.075
316.825744629,7178.75
317.123901367,7078.5
317.422088623,7057.3
317.720245361,7034.375
318.0184021,7072.775
318.316497803,7088.55
318.614654541,7133.9
318.912750244,7198.275
319.21081543,7198.1
319.50894165,7227.65
319.806945801,7226.55
320.104980469,7204.225
320.403045654,7216.75
320.701049805,7188.975
320.999023438,7189.1
321.297027588,7167.85
321.595001221,7153.55
321.892913818,7086.475
322.190887451,7045.6
322.488830566,6990.65
322.786712646,6969.8
323.084625244,6871.525
323.382507324,6860.275
323.680358887,6789.3
323.978210449,6737.975
324.276062012,6700.575
324.573852539,6646.475
324.871643066,6592.8
325.169464111,6570.475
325.467224121,6517.95
325.764984131,6437.25
326.062744141,6379.7
326.360473633,6317.525
326.658203125,6268.925
326.955871582,6185.7
327.253570557,6137.075
327.551239014,6112.325
327.848907471,6044.85
328.146514893,5986.075
328.444152832,5950.825
328.741790771,5886.8
329.039367676,5862.6
329.336914062,5781.825
329.634521484,5731.275
329.932067871,5713.525
330.229553223,5646.0
330.527160645,5586.65
330.824615479,5556.8
331.12210083,5497.525
331.419586182,5402.225
331.717041016,5359.0
332.014465332,5274.025
332.311920166,5261.4
332.609313965,5200.925
332.906707764,5207.625
333.204101562,5181.975
333.501495361,5175.7
333.798828125,5243.7
334.096160889,5292.55
334.39352417,5311.45
334.690795898,5345.25
334.988098145,5390.3
335.285400391,5437.5
335.582641602,5455.825
335.879882812,5495.8
336.177124023,5482.425
336.474334717,5557.025
336.77154541,5546.075
337.068725586,5578.125
337.365905762,5583.675
337.66305542,5563.875
337.960205078,5593.525
338.257324219,5597.25
338.554443359,5608.2
338.8515625,5655.175
339.148590088,5639.525
339.445648193,5653.15
339.742736816,5616.675
340.039764404,5627.525
340.336761475,5583.475
340.63381958,5542.675
340.930755615,5520.65
341.227722168,5457.85
341.524688721,5373.9
341.821624756,5371.0
342.118560791,5351.525
342.415496826,5430.3
342.712402344,5542.475
343.009246826,5680.8
343.306121826,5787.225
343.602966309,5825.5
343.899810791,5899.4
344.196624756,5967.7
344.493438721,6007.4
344.79019165,6028.325
345.086975098,6070.375
345.383758545,6109.7
345.680480957,6115.325
345.977203369,6083.1
346.273956299,6145.6
346.570617676,6138.7
346.86730957,6149.925
347.163970947,6128.25
347.460601807,6187.275
347.757232666,6160.875
348.053894043,6181.775
348.350463867,6118.3
348.647064209,6106.925
348.943634033,6087.3
349.24017334,6105.075
349.536712646,6057.375
349.833251953,6060.025
350.129760742,6035.525
350.426208496,6038.9
350.722747803,6003.625
351.019195557,6000.2
351.315612793,5965.025
351.612060547,5916.375
351.908508301,5893.95
352.204864502,5830.5
352.501281738,5799.625
352.797637939,5755.0
353.093963623,5660.675
353.390319824,5617.175
353.686645508,5559.35
353.982940674,5464.975
354.27923584,5461.45
354.575531006,5379.625
354.871765137,5392.075
355.167999268,5372.3
355.464233398,5380.025
355.760437012,5381.525
356.056640625,5381.35
356.352813721,5401.175
356.648956299,5389.25
356.945129395,5387.525
357.241271973,5392.3
357.537384033,5426.775
357.833496094,5371.025
358.129577637,5379.35
358.425628662,5339.75
358.721679688,5328.025
359.017730713,5305.9
359.313720703,5260.9
359.609710693,5235.975
359.905761719,5164.35
360.201721191,5141.0
360.497650146,5112.75
360.793609619,5090.075
361.089538574,5018.925
361.385437012,4937.05
361.681365967,4906.55
361.977233887,4880.9
362.273071289,4821.75
362.568908691,4728.0
362.864746094,4617.8
363.160552979,4525.125
363.456359863,4360.225
363.752166748,4244.125
364.047912598,4174.325
364.343658447,4139.45
364.639434814,4180.8
364.935119629,4204.375
365.230834961,4258.0
365.526550293,4284.4
365.822174072,4295.5
366.117858887,4311.4
366.413482666,4335.9
366.709075928,4358.15
367.004730225,4279.875
367.300292969,4283.225
367.595855713,4330.825
367.891448975,4220.4
368.186981201,4135.575
368.482513428,4105.775
368.778015137,4095.6
369.073547363,4062.5
369.36895752,4061.65
369.664428711,3975.775
369.95993042,3884.225
370.255310059,3829.425
370.550720215,3809.0
370.846160889,3793.625
371.14151001,3743.475
371.436859131,3749.05
371.73223877,3731.2
372.027557373,3709.1
372.322875977,3634.275
372.618164062,3617.95
372.913482666,3594.2
373.208709717,3568.55
373.503967285,3503.175
373.799194336,3475.725
374.094421387,3495.775
374.389648438,3472.625
374.684844971,3463.0
374.979980469,3506.25
375.275146484,3500.35
375.570281982,3517.775
375.865386963,3519.675
376.160522461,3475.275
376.455596924,3497.925
376.750640869,3586.775
377.045715332,3571.275
377.340759277,3613.25
377.635772705,3661.1
377.93081665,3682.55
378.225769043,3747.075
378.520751953,3801.975
378.815734863,3777.475
379.110656738,3890.55
379.405548096,4066.1
379.700500488,3922.575
379.995391846,3746.425
380.290252686,3774.525
380.585083008,3876.575
380.879974365,3909.5
381.17477417,3839.075
381.469543457,3792.175
381.764404297,3778.925
382.059143066,3794.675
382.353912354,3881.775
382.648651123,3953.275
382.943389893,3939.25
383.238067627,3780.7
383.532775879,3791.35
383.827484131,3743.575
384.12210083,3725.375
384.416778564,3703.375
384.711425781,3597.775
385.006011963,3633.375
385.300628662,3629.825
385.595184326,3693.775
385.88973999,3759.575
386.184295654,3865.4
386.478820801,3923.525
386.77331543,4014.025
387.067840576,4113.5
387.362335205,4193.875
387.656768799,4269.4
387.951202393,4296.3
388.245635986,4366.125
388.540039062,4422.8
388.834472656,4479.05
389.128875732,4401.9
389.423187256,4177.425
389.717559814,4146.375
390.011871338,4240.475
390.306182861,4270.075
390.600463867,4282.775
390.894775391,4335.375
391.189025879,4387.75
391.48324585,4356.25
391.777526855,4398.1
392.071685791,4596.15
392.365875244,4683.6
392.660064697,4737.325
392.95425415,5038.9
393.248382568,5033.2
393.542510986,4604.75
393.836608887,4451.7
394.130706787,4449.875
394.424804688,4402.65
394.71887207,4508.5
395.012878418,4482.25
395.306915283,4386.5
395.600921631,4339.325
395.894927979,4304.275
396.188903809,4348.825
396.482879639,4347.175
396.776794434,4538.75
397.070739746,4496.95
397.364654541,4529.0
397.658538818,4875.775
397.952423096,4901.125
398.246307373,4872.175
398.540100098,5342.75
398.833953857,5224.75
399.127746582,4798.625
399.421508789,4806.0
399.715301514,4748.3
400.009063721,4661.975
400.30279541,4540.2
400.596496582,4452.175
400.890258789,4623.7
401.183929443,4675.0
401.47756958,4581.275
401.771240234,4365.95
402.064880371,4374.075
402.35848999,4429.525
402.652130127,4331.825
402.945678711,4397.2
403.239257812,4351.775
403.532775879,4312.775
403.82635498,4345.975
404.119842529,4270.025
404.413360596,4262.825
404.706848145,4312.425
405.000274658,4236.825
405.293762207,4303.075
405.587188721,4379.1
405.880584717,4223.85
406.17401123,4055.1
406.467407227,3869.15
406.760742188,3893.9
407.054107666,3900.825
407.347442627,3858.025
407.640716553,3839.2
407.934051514,3891.3
408.227325439,3940.5
408.520568848,4147.525
408.813842773,4218.8
409.107086182,4031.175
409.400238037,3995.875
409.693450928,3927.3
409.986633301,4046.0
410.279754639,3974.525
410.572875977,3707.1
410.86605835,3644.7
411.159118652,3651.45
411.452209473,3685.1
411.745330811,3546.25
412.038360596,3486.075
412.331390381,3515.975
412.624420166,3527.175
412.917388916,3447.8
413.210388184,3308.6
413.503387451,3279.875
413.796295166,3187.725
414.089233398,3023.4
414.382141113,2958.325
414.675048828,2938.325
414.967926025,2969.775
415.260803223,2923.7
415.55368042,2956.625
415.846466064,2914.5
416.139282227,2983.45
416.432098389,3091.475
416.724853516,3074.5
417.017608643,3042.35
417.31036377,3036.95
417.603088379,3151.125
417.895782471,3142.6
418.188476562,3102.05
418.481140137,3180.725
418.773803711,3212.225
419.066436768,3191.075
419.359039307,3266.675
419.651641846,3249.975
419.944244385,3266.55
420.236816406,3222.875
420.529327393,3415.5
420.821899414,3475.3
421.114379883,3410.65
421.406860352,3656.275
421.699371338,3856.975
421.991821289,3802.95
422.284240723,3630.875
422.576721191,3492.85
422.869110107,3399.9
423.161468506,3343.25
423.453857422,3370.3
423.74621582,3272.575
424.038543701,3139.175
424.330871582,3124.5
424.623168945,3057.4
424.915435791,3181.9
425.207702637,3143.075
425.499969482,3110.375
425.792205811,3042.35
426.084411621,2821.8
426.376617432,2907.625
426.668762207,2964.7
426.9609375,2839.025
427.253082275,2954.3
427.545196533,3335.425
427.837310791,3076.325
428.129425049,2818.425
428.421447754,3023.55
428.713531494,3015.5
429.005554199,3010.425
429.297576904,3014.9
429.589599609,3404.675
429.881561279,3674.2
430.173522949,3474.675
430.465484619,3444.725
430.757415771,3518.9
431.049316406,3305.075
431.341186523,3107.175
431.633117676,3001.525
431.924957275,2737.175
432.21673584,2634.1
432.508636475,2753.925
432.800415039,2774.3
433.092163086,2691.55
433.383972168,2662.075
433.675689697,3307.775
433.967437744,3738.525
434.259155273,2879.1
434.550872803,2603.075
434.842498779,2656.025
435.134185791,2761.625
435.425842285,2792.3
435.717437744,2695.9
436.009063721,2533.075
436.30065918,2680.825
436.592224121,2971.875
436.883758545,2808.35
437.175323486,2568.05
437.466827393,2551.7
437.758331299,2567.0
438.049804688,2572.175
438.341247559,2632.6
438.63269043,2700.475
438.924163818,2688.95
439.215515137,2651.275
439.50692749,2564.3
439.798309326,2565.8
440.089660645,2585.175
440.380981445,2501.525
440.672332764,2504.925
440.963623047,2736.05
441.254882812,3149.5
441.546173096,3321.125
441.837402344,3084.875
442.128631592,2918.075
442.41986084,2911.1
442.711029053,2777.175
443.002197266,2842.775
443.293365479,3016.275
443.584503174,3129.825
443.875610352,3101.625
444.166717529,2865.1
444.457794189,2916.075
444.748840332,2904.8
445.039916992,2861.175
445.330932617,2955.175
445.621948242,2797.825
445.912963867,2631.725
446.203918457,2848.05
446.494812012,3035.8
446.785827637,2867.275
447.076721191,2705.475
447.367584229,2693.475
447.658447266,2673.675
447.949371338,2725.05
448.24017334,2591.225
448.530975342,2525.625
448.821838379,2701.775
449.112579346,2760.05
449.40335083,2701.1
449.694152832,2733.475
449.984863281,2733.75
450.27557373,2670.55
450.56628418,2721.225
450.856933594,2737.4
451.147583008,2603.575
451.438262939,2508.775
451.728881836,2687.35
452.019470215,2754.375
452.310089111,2574.3
452.600646973,2602.225
452.891174316,2657.825
453.181732178,2495.15
453.472229004,2383.275
453.762695312,2478.125
454.053222656,2497.6
454.343658447,2394.375
454.634063721,2336.95
454.924530029,2496.6
455.214935303,2621.025
455.505279541,2679.225
455.795715332,2558.225
456.086029053,2377.6
456.376312256,2356.15
456.666687012,2389.7
456.956939697,2471.5
457.247192383,2469.55
457.537445068,2549.275
457.827728271,2717.95
458.117919922,2641.05
458.408081055,2593.95
458.698303223,2741.575
458.988433838,2691.125
459.278564453,2527.75
459.568725586,2771.0
459.858825684,2878.8
460.148864746,2581.4
460.438995361,2576.55
460.729034424,2627.1
461.019042969,2615.375
461.309082031,2796.55
461.599060059,2687.2
461.889007568,2279.375
462.179016113,2120.825
462.468933105,2333.875
462.75881958,2433.125
463.048736572,2211.875
463.338592529,2445.45
463.628448486,2753.8
463.918365479,2480.625
464.2081604,2648.85
464.497924805,2599.45
464.787780762,2722.025
465.077514648,2978.175
465.367218018,2650.225
465.657012939,2825.25
465.946685791,3196.525
466.236358643,2837.125
466.526092529,2367.0
466.815734863,2366.95
467.105316162,2285.0
467.394927979,2334.575
467.684570312,2213.1
467.974121094,2286.65
468.263671875,2389.0
468.553222656,2187.525
468.842773438,2079.275
469.132232666,1991.0
469.42175293,2016.7
469.711212158,1979.225
470.000640869,1887.825
470.290100098,1929.8
470.579498291,1967.7
470.868835449,1970.05
471.158294678,1939.5
471.447601318,1923.025
471.736907959,1976.175
472.026275635,2031.075
472.315551758,2021.15
472.604797363,2015.6
472.894104004,2134.4
473.183319092,2222.575
473.47253418,2225.075
473.761779785,2209.675
474.05090332,2152.35
474.340087891,2095.6
474.629241943,2044.175
474.918365479,2203.175
475.207427979,2442.625
475.496551514,2476.2
475.785614014,2231.825
476.074645996,2050.9
476.363708496,2129.125
476.652679443,2251.25
476.941650391,2107.375
477.230682373,1954.875
477.519622803,1955.7
477.808502197,2099.825
478.097412109,2329.475
478.386352539,2290.675
478.675201416,2055.925
478.964050293,1961.625
479.25289917,2134.575
479.541717529,2175.125
479.830474854,2023.125
480.11932373,2359.775
480.408050537,2508.775
480.696777344,2157.575
480.985534668,2058.9
481.274200439,2120.475
481.562866211,2357.225
481.851593018,2353.675
482.140197754,2312.9
482.428833008,2177.375
482.717468262,2003.925
483.006011963,2020.225
483.294586182,2136.075
483.5831604,2155.95
483.871673584,2037.45
484.16015625,2166.1
484.448699951,2373.5
484.7371521,2409.775
485.02557373,2412.45
485.314025879,2172.85
485.602416992,3360.35
485.890777588,12015.6
486.179199219,10731.5
486.467559814,2852.95
486.755859375,2085.05
487.044219971,2409.15
487.332519531,2590.425
487.620758057,2217.95
487.908966064,1983.8
488.197265625,1809.825
488.485473633,1717.375
488.773651123,1828.35
489.061859131,1826.95
489.350006104,1768.675
489.638122559,1724.1
489.926300049,1729.425
490.214355469,1695.875
490.502441406,1644.225
490.790527344,1588.3
491.078552246,1756.675
491.366546631,1771.95
491.654602051,1558.95
491.942565918,1609.625
492.230499268,1646.15
492.518493652,1609.45
492.806396484,1657.55
493.094268799,1565.05
493.382202148,1610.4
493.670074463,1707.175
493.957885742,1576.95
494.245727539,1564.4
494.533508301,1703.15
494.821289062,1615.425
495.109100342,1477.3
495.396850586,1438.125
495.684539795,1392.8
495.972290039,1587.45
496.25994873,1884.525
496.547607422,1888.3
496.835296631,1726.175
497.122894287,1440.975
497.410522461,1370.8
497.6980896,1381.525
497.985687256,1342.35
498.273223877,1436.8
498.560760498,1500.5
498.848266602,1519.9
499.135772705,1496.125
499.423217773,1533.45
499.710693359,1615.35
499.998138428,1569.225
500.285522461,1420.65
500.572937012,1348.95
500.860290527,1392.575
501.147644043,1483.325
501.434997559,1687.9
501.722290039,1567.375
502.00958252,1361.325
502.296875,1589.65
502.584106445,1581.1
502.871337891,1424.35
503.158599854,1492.375
503.445770264,1554.2
503.732910156,1541.85
504.020141602,1369.0
504.307220459,1357.575
504.594329834,1384.75
504.881469727,1324.575
505.168518066,1401.5
505.455535889,1451.975
505.742614746,1338.8
506.029632568,1284.5
506.316589355,1439.95
506.603637695,1528.3
506.890563965,1350.05
507.177459717,1212.95
507.464385986,1138.075
507.751312256,1321.3
508.038146973,1400.5
508.325012207,1283.7
508.611877441,1326.45
508.898681641,1335.125
509.185424805,1201.175
509.472259521,1170.975
509.759002686,1235.7
510.045715332,1273.15
510.332458496,1219.075
510.619140625,1270.725
510.905761719,1197.75
511.192504883,1190.225
511.479095459,1220.725
511.765686035,1184.325
512.052307129,1104.475
512.338928223,1067.0
512.625427246,1115.975
512.91204834,1158.2
513.198486328,1142.0
513.484985352,1122.3
513.77142334,1049.525
514.057922363,1090.75
514.344299316,1078.0
514.63079834,1051.975
514.917175293,1045.5
515.203552246,960.475
515.489868164,938.325
515.776245117,1042.725
516.0625,1072.325
516.348815918,1004.325
516.635070801,1030.95
516.921325684,1078.675
517.207580566,1027.75
517.493774414,937.65
517.779968262,955.2
518.066101074,988.125
518.352294922,940.25
518.638366699,941.925
518.924499512,1017.95
519.210632324,1079.275
519.496643066,1051.45
519.782714844,956.875
520.068786621,938.225
520.354736328,899.4
520.640686035,859.25
520.926757812,907.5
521.212646484,968.25
521.498535156,973.125
521.784484863,929.05
522.0703125,876.425
522.356262207,891.4
522.642089844,948.35
522.927856445,946.375
523.213684082,939.95
523.499511719,937.575
523.78527832,970.4
524.070983887,1012.025
524.356750488,997.325
524.64239502,962.55
524.928039551,953.275
525.213806152,959.575
525.499389648,958.325
525.784973145,978.975
526.070617676,1015.225
526.356140137,986.9
526.641723633,996.45
526.927307129,1044.875
527.212768555,1062.975
527.498291016,1042.45
527.783752441,1030.025
528.069213867,1013.95
528.354675293,1033.425
528.640014648,1168.725
528.925476074,1228.9
529.21081543,1167.25
529.496154785,1148.3
529.781555176,1108.775
530.066833496,1140.675
530.352050781,1147.175
530.637390137,1133.1
530.922607422,1133.2
531.207824707,1136.75
531.493041992,1114.85
531.778198242,1178.925
532.063354492,1159.0
532.348571777,1110.6
532.633666992,1115.975
532.918762207,1193.025
533.203857422,1264.3
533.488891602,1282.175
533.773925781,1238.8
534.059020996,1219.15
534.343933105,1246.175
534.628967285,1220.975
534.91394043,1237.4
535.198852539,1254.65
535.483703613,1223.975
535.768676758,1179.125
536.053527832,1189.425
536.338317871,1147.025
536.62322998,1089.075
536.90802002,1076.725
537.192810059,1101.375
537.477539062,1159.725
537.762329102,1195.8
538.047058105,1222.175
538.331726074,1252.45
538.616455078,1233.95
538.901123047,1219.5
539.18572998,1258.125
539.470397949,1268.6
539.755004883,1258.8
540.039550781,1219.875
540.32409668,1191.95
540.608703613,1225.85
540.893188477,1302.475
541.17767334,1317.5
541.462158203,1323.625
541.746643066,1279.5
542.031066895,1313.025
542.315429688,1349.075
542.59979248,1335.25
542.884216309,1328.75
543.168579102,1327.45
543.452941895,1328.65
543.737243652,1370.8
544.021484375,1412.375
544.305725098,1403.5
544.590026855,1378.175
544.874267578,1396.6
545.158447266,1456.725
545.442626953,1383.275
545.726806641,1291.85
546.010925293,1308.8
546.29510498,1343.5
546.579162598,1334.45
546.863220215,1371.45
547.147277832,1427.2
547.431335449,1501.85
547.715332031,1542.425
547.999328613,1639.725
548.283325195,1640.875
548.567260742,1532.0
548.851135254,1504.1
549.135070801,1476.825
549.419006348,1394.275
549.702819824,1483.65
549.986755371,1540.05
550.270507812,1505.175
550.554321289,1545.3
550.83807373,1554.875
551.121826172,1526.425
551.405517578,1542.025
551.689331055,1633.15
551.973022461,1813.25
552.256652832,1875.975
552.540344238,1810.375
552.823974609,1776.6
553.107543945,1762.05
553.391174316,1811.45
553.674743652,1859.7
553.958251953,1856.525
554.241821289,1882.275
554.525268555,1822.625
554.808776855,1818.425
555.092285156,1990.225
555.375671387,2039.9
555.659057617,2050.475
555.942504883,2062.95
556.225891113,2105.375
556.509216309,2067.7
556.792541504,1995.75
557.075866699,2042.975
557.359130859,2086.6
557.64239502,2078.375
557.92565918,2163.725
558.208862305,2131.975
558.49206543,2082.35
558.77532959,2088.375
559.058410645,2140.2
559.341552734,2118.225
559.624694824,2177.075
559.907775879,2221.7
560.190856934,2331.525
560.473937988,2340.325
560.756896973,2360.175
561.039978027,2393.7
561.322937012,2356.9
561.605895996,2349.825
561.88885498,2311.6
562.171813965,2326.925
562.454650879,2314.925
562.737548828,2356.225
563.020446777,2406.05
563.303283691,2426.6
563.58605957,2458.5
563.868896484,2467.375
564.151672363,2505.2
564.434387207,2542.175
564.717163086,2509.325
564.99987793,2555.0
565.282531738,2594.525
565.565185547,2557.075
565.847839355,2559.25
566.130432129,2671.45
566.413085938,2640.9
566.695678711,2667.45
566.978149414,2741.375
567.260681152,2865.275
567.543273926,2951.225
567.825744629,2869.8
568.108154297,2880.05
568.390686035,3010.025
568.673095703,3122.25
568.955505371,3149.425
569.237854004,3179.125
569.520202637,3417.325
569.802490234,3606.025
570.084838867,3572.825
570.367126465,3429.55
570.649414062,3449.025
570.93170166,3762.55
571.213928223,3828.6
571.496154785,3620.0
571.778381348,3804.9
572.06048584,4034.5
572.342590332,3647.375
572.624755859,3349.125
572.906860352,3394.05
573.188903809,3986.375
573.470947266,4196.375
573.752990723,3996.675
574.03503418,4090.975
574.317016602,4446.225
574.598937988,4249.5
574.88092041,4139.25
575.162841797,4300.075
575.444763184,3999.65
575.726623535,3768.025
576.008483887,3803.1
576.290344238,4157.4
576.572143555,4339.125
576.853881836,4390.2
577.135681152,4315.925
577.417419434,4362.75
577.699157715,5122.825
577.980895996,5284.1
578.262573242,4689.85
578.544128418,4291.075
578.825866699,4250.425
579.107421875,3980.0
579.388977051,4117.3
579.670593262,4477.95
579.952148438,4344.925
580.233642578,4437.4
580.515197754,4552.3
580.796691895,4275.725
581.078125,4422.875
581.359619141,5782.25
581.640991211,5871.65
581.922363281,5048.775
582.203796387,5120.925
582.485107422,4799.7
582.766418457,4433.7
583.047790527,4303.15
583.329040527,4201.875
583.610290527,4088.175
583.891540527,4196.925
584.172790527,4496.175
584.453918457,4490.1
584.735107422,4556.8
585.016235352,4971.675
585.297363281,4939.95
585.578552246,4757.225
585.859619141,4712.275
586.140625,4528.275
586.421630859,4381.35
586.702697754,4434.8
586.983642578,4632.95
587.264648438,4787.225
587.545654297,4734.55
587.826477051,4697.975
588.107421875,4520.9
588.388305664,4585.425
588.669189453,4654.05
588.950012207,4522.375
589.230834961,4447.275
589.511657715,4521.025
589.792358398,4614.875
590.073120117,4617.775
590.353881836,4592.35
590.63458252,4607.975
590.915283203,4585.775
591.195922852,4570.65
591.4765625,4632.15
591.757202148,4651.775
592.037780762,4632.65
592.31829834,4663.925
592.598937988,4843.375
592.879394531,4999.275
593.159912109,4924.175
593.440429688,4872.675
593.720825195,4856.75
594.001281738,4863.175
594.281677246,4773.175
594.562072754,4795.475
594.842407227,4893.875
595.122802734,4936.875
595.403137207,4903.25
595.683410645,4874.025
595.963623047,4883.9
596.243896484,4842.15
596.524169922,4835.425
596.804382324,4868.9
597.084533691,4892.25
597.364746094,4937.45
597.644836426,4950.625
597.924987793,4931.15
598.205078125,4904.0
598.485107422,4948.275
598.765197754,5055.75
599.045227051,5109.125
599.325195312,5024.6
599.605224609,4979.75
599.885192871,5032.075
600.165100098,5067.05
600.445007324,5033.5
600.724914551,5036.875
601.004760742,5039.45
601.284667969,5085.05
601.56451416,5042.975
601.844238281,5052.45
602.124084473,5037.625
602.403808594,5068.9
602.683532715,5098.1
602.963256836,5086.95
603.242919922,5126.6
603.522583008,5174.025
603.802246094,5142.425
604.081848145,5108.1
604.36138916,5095.3
604.641052246,5113.7
604.920532227,5090.4
605.200073242,5146.425
605.479614258,5180.975
605.759094238,5198.55
606.038574219,5188.95
606.317932129,5155.15
606.597412109,5151.5
606.87677002,5173.45
607.15612793,5190.5
607.435546875,5197.85
607.714782715,5216.2
607.99407959,5185.45
608.273376465,5171.025
608.552612305,5195.275
608.831848145,5201.7
609.111083984,5195.575
609.390258789,5173.3
609.669433594,5196.275
609.948608398,5240.525
610.227722168,5227.5
610.506713867,5180.425
610.785888672,5176.275
611.064880371,5191.9
611.34387207,5208.575
611.622924805,5208.525
611.901916504,5213.85
612.180847168,5148.625
612.459777832,5174.725
612.738647461,5163.25
613.01751709,5155.85
613.296447754,5098.5
613.575317383,5070.5
613.854064941,5025.3
614.132873535,4968.0
614.411621094,4912.925
614.690368652,4878.675
614.969177246,4823.75
615.247802734,4732.05
615.526489258,4734.575
615.805175781,4625.775
616.08380127,4519.0
616.362365723,4443.55
616.640991211,4406.2
616.919555664,4361.3
617.198059082,4491.5
617.4765625,4724.6
617.755126953,4877.8
618.033569336,4898.35
618.311950684,4904.3
618.590454102,4903.2
618.868774414,4862.15
619.147155762,4868.675
619.425598145,4861.875
619.703857422,4868.85
619.982177734,4886.0
620.260498047,4845.8
620.538757324,4849.175
620.816955566,4840.625
621.095214844,4799.95
621.373413086,4821.725
621.651550293,4877.95
621.929748535,4892.075
622.207824707,4899.85
622.485900879,4888.225
622.764038086,4906.425
623.042053223,4948.8
623.320007324,4943.75
623.598083496,4964.35
623.876037598,4931.85
624.153991699,4970.9
624.432006836,4976.25
624.709838867,4982.25
624.987731934,4970.0
625.265563965,4970.175
625.543395996,4999.825
625.821228027,5048.45
626.098999023,5037.725
626.376831055,5090.625
626.654541016,5098.825
626.932250977,5126.875
627.209960938,5173.3
627.487670898,5181.35
627.765319824,5232.825
628.04296875,5212.125
628.320495605,5209.075
628.598083496,5228.325
628.875671387,5228.45
629.153259277,5308.2
629.430725098,5345.475
629.708251953,5328.525
629.985656738,5349.95
630.263122559,5393.55
630.540588379,5427.95
630.817932129,5423.4
631.095275879,5468.55
631.372680664,5496.675
631.649963379,5542.825
631.927246094,5593.55
632.204589844,5626.3
632.481811523,5692.4
632.759033203,5771.225
633.036254883,5790.35
633.313415527,5875.675
633.590576172,5927.875
633.867736816,6007.2
634.144836426,6068.925
634.421875,6122.525
634.698913574,6195.7
634.976013184,6214.875
635.252990723,6283.525
635.529968262,6299.9
635.807006836,6388.775
636.08392334,6364.85
636.360839844,6280.175
636.637756348,6183.675
636.914611816,6159.75
637.191467285,6167.7
637.468261719,6230.475
637.745056152,6188.925
638.021789551,6220.55
638.298583984,6230.575
638.575317383,6269.975
638.851989746,6269.825
639.12878418,6280.7
639.405395508,6243.325
639.682006836,6290.45
639.958618164,6303.8
640.235229492,6274.65
640.511779785,6330.45
640.788330078,6295.05
641.064880371,6312.9
641.341308594,6283.45
641.617797852,6300.85
641.894226074,6305.75
642.170654297,6306.225
642.44708252,6325.225
642.723388672,6312.2
642.999755859,6328.4
643.276123047,6303.275
643.552429199,6297.5
643.828674316,6302.975
644.104919434,6293.45
644.381164551,6289.15
644.657348633,6287.9
644.933532715,6256.625
645.209716797,6255.525
645.485839844,6273.85
645.761901855,6251.825
646.038024902,6245.05
646.314086914,6265.325
646.590087891,6225.65
646.866149902,6300.05
647.142150879,6249.45
647.41809082,6233.75
647.694030762,6230.0
647.969970703,6196.3
648.245788574,6246.425
648.521728516,6235.775
648.797546387,6221.15
649.073303223,6215.625
649.349182129,6202.4
649.624938965,6234.6
649.900634766,6213.775
650.176391602,6196.975
650.452087402,6185.4
650.727783203,6178.175
651.003479004,6190.025
651.279052734,6163.275
651.554626465,6183.55
651.83026123,6172.15
652.105773926,6195.375
652.381286621,6140.075
652.656860352,6168.875
652.932312012,6204.5
653.207763672,6191.425
653.483215332,6228.45
653.758605957,6187.9
654.033935547,6216.4
654.309326172,6194.175
654.584716797,6194.475
654.859985352,6181.2
655.135253906,6228.4
655.410583496,6237.725
655.685791016,7204.3
655.9609375,11241.95
656.236206055,10989.025
656.511291504,7258.15
656.786437988,6381.25
657.061645508,6287.1
657.336669922,6249.775
657.611694336,6311.125
657.886779785,6309.025
658.161804199,6333.2
658.436828613,6288.725
658.711791992,6319.175
658.986755371,6314.725
659.261657715,6308.45
659.536621094,6343.225
659.811401367,6363.65
660.086303711,6355.525
660.36114502,6359.125
660.635864258,6340.675
660.910644531,6386.2
661.185424805,6359.375
661.460205078,6401.95
661.734863281,6407.3
662.009521484,6387.05
662.284179688,6407.2
662.558776855,6429.55
662.833435059,6459.15
663.108032227,6444.475
663.382568359,6443.775
663.657043457,6505.475
663.93157959,6507.875
664.206054688,6475.475
664.48046875,6514.9
664.755004883,6553.1
665.02935791,6588.425
665.303710938,6569.825
665.578125,6587.95
665.852416992,6601.725
666.126708984,6598.475
666.401062012,6607.5
666.675292969,6629.475
666.949462891,6621.175
667.223754883,6626.65
667.497924805,6654.275
667.772094727,6685.7
668.046264648,6626.125
668.3203125,6701.6
668.594421387,6698.6
668.868469238,6720.75
669.14251709,6744.325
669.416503906,6750.525
669.690551758,6767.575
669.964477539,6781.95
670.23840332,6779.25
670.512329102,6756.525
670.786254883,6747.525
671.060058594,6813.4
671.333984375,6808.675
671.607788086,6843.05
671.881530762,6820.35
672.155334473,6854.2
672.429077148,6867.25
672.702758789,6874.8
672.97644043,6848.35
673.25012207,6835.85
673.523742676,6830.15
673.797302246,6846.475
674.070922852,6920.975
674.344482422,6904.725
674.618041992,6923.15
674.891601562,6907.375
675.165100098,6919.175
675.438476562,6895.325
675.711975098,6932.875
675.985412598,6926.075
676.258789062,6893.375
676.532165527,6942.3
676.805480957,6937.075
677.078796387,6940.95
677.352111816,6939.3
677.625366211,6952.925
677.898620605,6924.9
678.171875,6991.725
678.445007324,6976.2
678.718200684,7001.55
678.991394043,6988.05
679.264404297,6975.6
679.537536621,7005.7
679.81060791,7018.325
680.083679199,7013.425
680.356689453,7014.125
680.629699707,7026.375
680.902648926,6986.4
681.175598145,7056.75
681.448547363,7073.025
681.721435547,7018.25
681.99420166,7049.3
682.267150879,7025.75
682.539916992,7085.925
682.812744141,7020.5
683.085510254,7033.225
683.358215332,7035.8
683.63092041,7031.3
683.903625488,7067.8
684.176330566,7045.625
684.448913574,7029.675
684.721557617,7012.65
684.99420166,7044.025
685.266662598,7042.8
685.539245605,7059.25
685.811767578,7080.475
686.084289551,7069.875
686.356689453,7090.525
686.629150391,7108.6
686.901550293,7128.175
687.17401123,7119.875
687.446350098,7152.5
687.718688965,7135.0
687.990966797,7174.1
688.263305664,7171.575
688.535522461,7149.475
688.807739258,7129.4
689.079956055,7192.375
689.352172852,7200.825
689.624328613,7196.8
689.896484375,7210.825
690.168518066,7208.225
690.440612793,7239.475
690.71270752,7243.85
690.984741211,7232.4
691.256713867,7255.075
691.528747559,7229.1
691.800720215,7210.65
692.072631836,7266.025
692.344543457,7254.875
692.616394043,7274.125
692.888244629,7292.4
693.160095215,7311.45
693.431945801,7307.35
693.703674316,7277.925
693.975463867,7254.925
694.247131348,7304.275
694.518859863,7294.075
694.790588379,7309.75
695.062255859,7318.5
695.33380127,7325.05
695.60546875,7290.8
695.87701416,7308.6
696.148498535,7318.15
696.42010498,7315.025
696.691589355,7326.225
696.96307373,7327.725
697.234558105,7369.95
697.50592041,7365.05
697.777282715,7342.45
698.048706055,7332.8
698.320068359,7390.675
698.591308594,7341.275
698.862670898,7343.875
699.133972168,7341.375
699.405151367,7342.575
699.676391602,7379.875
699.947570801,7334.275
700.21875,7365.875
700.489868164,7362.05
700.761047363,7324.025
701.032104492,7369.175
701.303100586,7326.625
701.57421875,7370.35
701.845214844,7356.35
702.116149902,7395.7
702.387207031,7368.125
702.65814209,7362.275
702.928955078,7381.175
703.199951172,7359.675
703.47076416,7318.125
703.741577148,7331.075
704.012451172,7316.3
704.28314209,7327.625
704.553955078,7317.875
704.824707031,7363.475
705.095397949,7381.3
705.366027832,7356.8
705.63671875,7345.65
705.907348633,7322.05
706.17791748,7335.5
706.448486328,7348.075
706.719055176,7346.85
706.989562988,7343.55
707.260131836,7352.925
707.530517578,7357.875
707.800964355,7336.525
708.071411133,7288.025
708.341796875,7306.975
708.612182617,7269.975
708.882446289,7240.275
709.152893066,7294.7
709.423156738,7261.55
709.693359375,7228.7
709.963623047,7246.175
710.233825684,7246.5
710.503967285,7231.4
710.774169922,7225.925
711.044311523,7226.725
711.31439209,7178.425
711.584533691,7195.275
711.854553223,7207.55
712.124572754,7205.35
712.39465332,7145.925
712.664611816,7173.75
712.934509277,7195.65
713.204467773,7167.8
713.474365234,7157.125
713.74420166,7163.625
714.014099121,7192.2
714.283874512,7161.9
714.553710938,7153.75
714.823486328,7148.35
715.093200684,7089.675
715.362915039,7105.325
715.632629395,7068.525
715.902282715,7053.525
716.171875,7068.75
716.441589355,7059.75
716.711181641,7018.9
716.980712891,7030.075
717.250244141,7014.625
717.519775391,7015.15
717.78918457,7018.325
718.058654785,7011.325
718.328125,7025.65
718.597473145,6963.85
718.866882324,6961.0
719.136230469,6970.675
719.405578613,6982.825
719.674865723,6977.375
719.944152832,6935.8
720.213439941,6892.875
720.48260498,6942.675
720.75177002,6917.95
721.020996094,6921.425
721.290100098,6920.575
721.559204102,6878.275
721.828308105,6863.25
722.097351074,6847.575
722.366455078,6857.225
722.635437012,6840.625
722.904418945,6796.775
723.173400879,6815.275
723.442321777,6807.6
723.711181641,6764.85
723.980102539,6788.75
724.248962402,6796.55
724.51776123,6748.275
724.786560059,6776.425
725.055358887,6761.925
725.324035645,6725.125
725.592834473,6719.975
725.86151123,6687.525
726.130187988,6691.6
726.398803711,6632.55
726.667419434,6661.75
726.935974121,6615.5
727.204528809,6558.45
727.473083496,6560.325
727.741638184,6562.325
728.010070801,6517.95
728.278564453,6500.8
728.546936035,6498.575
728.815368652,6421.15
729.08380127,6370.05
729.352111816,6347.225
729.620361328,6282.625
729.88873291,6307.325
730.156982422,6342.55
730.425231934,6299.225
730.693481445,6298.075
730.961669922,6327.525
731.229797363,6360.5
731.49798584,6337.05
731.766113281,6373.9
732.034118652,6428.525
732.302246094,6452.425
732.570251465,6436.925
732.838256836,6450.85
733.106262207,6508.9
733.374145508,6505.075
733.642089844,6508.725
733.909973145,6537.85
734.177856445,6591.725
734.445678711,6657.3
734.713562012,6711.85
734.981323242,6667.45
735.249084473,6711.35
735.516845703,6818.375
735.784545898,6853.225
736.052185059,6844.775
736.319885254,6914.15
736.587524414,6941.5
736.855102539,6950.875
737.122619629,7010.725
737.390197754,7039.675
737.657714844,7114.575
737.925170898,7144.625
738.192749023,7197.175
738.460144043,7228.525
738.727539062,7253.625
738.994995117,7307.625
739.262329102,7357.3
739.529663086,7414.475
739.79699707,7428.6
740.06427002,7476.75
740.331481934,7496.625
740.598754883,7512.15
740.865905762,7514.775
741.133056641,7614.8
741.40032959,7607.775
741.667358398,7642.775
741.934448242,7647.725
742.201599121,7673.425
742.468566895,7731.725
742.735534668,7771.5
743.002563477,7758.475
743.26953125,7737.075
743.536437988,7774.95
743.803405762,7830.25
744.0703125,7801.4
744.337097168,7854.95
744.604003906,7784.15
744.870727539,7813.85
745.137512207,7836.775
745.40423584,7854.85
745.670959473,7794.725
745.93762207,7806.65
746.204284668,7800.3
746.470947266,7762.8
746.737548828,7762.525
747.004089355,7773.275
747.270751953,7774.525
747.53717041,7759.05
747.803710938,7746.975
748.070251465,7738.15
748.336608887,7722.1
748.603027344,7671.725
748.869445801,7662.75
749.135803223,7629.35
749.402099609,7639.65
749.668457031,7643.125
749.934753418,7583.325
750.20098877,7562.55
750.467224121,7584.7
750.733459473,7555.8
750.999572754,7508.775
751.26574707,7441.05
751.531860352,7481.125
751.797912598,7456.975
752.064025879,7384.65
752.330078125,7389.575
752.596069336,7362.075
752.862060547,7321.775
753.127990723,7289.875
753.393920898,7272.775
753.659912109,7238.5
753.925720215,7220.075
754.19152832,7184.05
754.457397461,7138.55
754.723144531,7095.3
754.988952637,7085.8
755.254699707,7078.475
755.520385742,7086.025
755.786071777,7057.975
756.051696777,7039.45
756.317382812,6981.975
756.582946777,6943.725
756.848510742,6978.675
757.114074707,6919.75
757.379577637,6889.075
757.645080566,6927.8
757.910583496,6887.55
758.175964355,6826.5
758.441345215,6810.1
758.706848145,6728.675
758.972106934,6702.25
759.237426758,6720.45
759.502807617,6737.725
759.768005371,6737.15
760.03326416,6682.825
760.298522949,6625.25
760.563659668,6638.875
760.828857422,6615.4
761.093994141,6608.525
761.359130859,6565.975
761.624206543,6544.675
761.889282227,6526.425
762.15423584,6523.35
762.419250488,6456.45
762.684265137,6444.925
762.949157715,6411.575
763.214050293,6393.2
763.479003906,6363.225
763.743835449,6340.55
764.008666992,6332.425
764.2734375,6320.3
764.538208008,6327.925
764.802978516,6329.95
765.067687988,6281.5
765.332397461,6289.75
765.597045898,6257.6
765.861694336,6214.725
766.126342773,6220.925
766.390930176,6204.025
766.655395508,6147.875
766.920043945,6130.625
767.184509277,6108.8
767.448974609,6117.775
767.713439941,6092.35
767.977783203,6047.425
768.2421875,6073.525
768.506591797,6033.75
768.770874023,6105.425
769.03515625,6066.3
769.299499512,6039.25
769.563720703,6021.775
769.827941895,5987.575
770.092163086,5983.375
770.356323242,5964.675
770.620483398,5960.925
770.88458252,5965.0
771.148681641,5945.175
771.412719727,5936.6
771.676757812,5945.725
771.940734863,5907.525
772.204711914,5903.075
772.468688965,5878.85
772.73260498,5873.65
772.996459961,5884.675
773.260314941,5194.85
773.524169922,707.075
773.787963867,138.525
774.051696777,121.1
774.315551758,118.3
774.579223633,121.45
774.842895508,121.025
775.106567383,122.5
775.370239258,117.6
775.633789062,122.675
775.897399902,126.875
776.160949707,120.45
776.424499512,120.25
776.687988281,124.025
776.951477051,124.55
777.214904785,119.875
777.47833252,121.575
