191.299911499,99.925
191.603515625,103.65
191.907119751,97.25
192.210693359,104.3
192.514251709,97.45
192.817810059,104.125
193.121368408,104.95
193.42489624,106.1
193.728408813,99.925
194.031936646,100.95
194.33543396,94.725
194.638916016,113.675
194.94241333,96.525
195.245880127,95.85
195.549331665,97.125
195.852767944,101.2
196.156204224,197.85
196.459625244,191.175
196.763015747,193.3
197.066436768,203.025
197.369812012,194.525
197.673187256,193.375
197.9765625,189.6
198.279922485,191.25
198.583251953,186.0
198.886581421,193.525
199.18989563,199.3
199.493209839,196.475
199.79649353,189.45
200.09979248,198.7
200.403076172,193.2
200.706314087,195.1
201.009567261,190.225
201.312820435,194.0
201.616027832,186.875
201.919235229,185.175
202.222457886,188.8
202.525634766,190.375
202.828826904,185.2
203.132003784,185.55
203.435150146,185.55
203.738296509,185.975
204.041412354,185.35
204.344558716,188.425
204.647659302,191.125
204.950759888,191.025
205.253845215,187.725
205.556930542,182.675
205.859985352,185.4
206.163024902,185.775
206.466079712,189.075
206.769104004,196.2
207.072113037,189.725
207.375137329,192.35
207.678131104,193.275
207.981109619,194.3
208.284088135,185.275
208.587036133,195.75
208.889984131,193.75
209.19291687,195.35
209.495849609,199.375
209.798751831,196.35
210.101654053,193.575
210.404556274,195.275
210.707427979,196.4
211.010269165,204.675
211.31312561,203.55
211.615982056,202.175
211.918807983,202.35
212.221618652,200.6
212.524429321,197.425
212.827224731,208.0
213.130004883,197.55
213.432769775,207.1
213.735534668,204.15
214.038269043,213.225
214.341003418,208.575
214.643737793,209.525
214.946456909,216.075
215.249145508,220.075
215.551834106,221.8
215.854507446,215.025
216.157165527,220.025
216.45980835,222.65
216.762451172,225.575
217.065078735,228.3
217.36769104,225.5
217.670303345,231.65
217.972885132,235.275
218.275466919,236.425
218.578048706,233.625
218.880599976,252.1
219.183120728,256.7
219.485656738,264.1
219.788192749,289.85
220.090682983,321.125
220.393188477,349.0
220.695663452,392.475
220.998138428,439.275
221.300582886,503.625
221.603042603,559.4
221.905487061,631.45
222.207901001,710.475
222.510299683,792.2
222.812728882,890.7
223.115097046,994.0
223.41746521,1103.3
223.719848633,1205.975
224.022171021,1317.9
224.324508667,1427.125
224.626846313,1546.475
224.929168701,1674.375
225.231460571,1801.875
225.533737183,1921.375
225.836013794,2056.275
226.138290405,2146.925
226.440536499,2267.6
226.742767334,2367.325
227.044998169,2474.15
227.347213745,2599.925
227.649429321,2697.95
227.951629639,2765.925
228.253799438,2839.125
228.555953979,2928.025
228.858123779,2993.3
229.160263062,3082.65
229.462371826,3132.3
229.764511108,3193.425
230.066619873,3253.55
230.36869812,3291.825
230.670776367,3353.5
230.972854614,3439.775
231.274902344,3496.75
231.576950073,3566.475
231.878967285,3618.45
232.180999756,3699.4
232.48298645,3753.35
232.784988403,3827.85
233.086975098,3895.025
233.388946533,3953.8
233.69090271,4025.825
233.992858887,4104.025
234.294769287,4132.575
234.596694946,4185.225
234.898605347,4250.6
235.200500488,4273.225
235.502380371,4307.375
235.804244995,4365.675
236.106109619,4349.775
236.407958984,4385.175
236.709777832,4428.65
237.011581421,4431.075
237.313400269,4423.175
237.615203857,4451.975
237.916976929,4506.375
238.21875,4480.275
238.520507812,4495.075
238.822250366,4509.4
239.12399292,4486.525
239.425704956,4520.05
239.727401733,4490.125
240.02911377,4520.75
240.330780029,4478.825
240.632446289,4492.65
240.93409729,4484.175
241.23576355,4510.8
241.537384033,4495.425
241.839004517,4500.85
242.140594482,4498.25
242.442199707,4519.475
242.743774414,4533.75
243.045333862,4537.45
243.346923828,4524.925
243.648452759,4532.7
243.949966431,4517.75
244.251495361,4524.825
244.552993774,4509.65
244.854492188,4470.95
245.155975342,4464.25
245.457443237,4458.125
245.758880615,4451.05
246.060333252,4409.425
246.36177063,4378.175
246.66317749,4341.175
246.964569092,4305.175
247.265945435,4301.475
247.567337036,4261.175
247.86869812,4277.175
248.170059204,4264.325
248.471389771,4238.825
248.772705078,4243.0
249.074035645,4251.1
249.375335693,4227.3
249.676620483,4258.05
249.977890015,4258.1
250.279159546,4306.25
250.58039856,4324.4
250.881637573,4327.0
251.182876587,4352.9
251.484069824,4397.6
251.785263062,4413.625
252.086456299,4451.775
252.387619019,4465.2
252.688781738,4479.775
252.989929199,4541.6
253.291061401,4582.125
253.592178345,4640.1
253.893280029,4648.35
254.194366455,4655.9
254.49546814,4671.95
254.796524048,4671.45
255.097579956,4701.4
255.398620605,4691.525
255.699645996,4728.275
256.000640869,4714.475
256.30166626,4740.6
256.602661133,4769.8
256.903656006,4734.15
257.204589844,4746.15
257.505523682,4739.7
257.80645752,4742.9
258.107391357,4734.8
258.408294678,4710.275
258.709228516,4690.125
259.010070801,4663.1
259.310943604,4660.45
259.611846924,4608.825
259.912658691,4563.775
260.213500977,4562.375
260.514343262,4530.6
260.815124512,4501.175
261.115936279,4481.85
261.416717529,4463.0
261.717468262,4472.25
262.018218994,4446.375
262.318969727,4456.725
262.619689941,4492.825
262.920410156,4547.275
263.221130371,4590.725
263.521789551,4628.725
263.822479248,4673.05
264.123138428,4725.45
264.42376709,4748.75
264.72442627,4783.4
265.025054932,4800.825
265.325622559,4837.675
265.626251221,4842.7
265.926818848,4845.525
266.227386475,4839.15
266.527954102,4829.525
266.828460693,4860.725
267.12902832,4824.725
267.429534912,4823.4
267.730010986,4816.475
268.030517578,4812.5
268.330993652,4780.275
268.631439209,4777.875
268.931915283,4805.925
269.232299805,4794.275
269.532745361,4801.15
269.8331604,4779.4
270.133544922,4810.05
270.433929443,4821.125
270.734313965,4832.225
271.034637451,4892.375
271.334991455,4862.6
271.635314941,4928.525
271.935638428,4962.375
272.235931396,5049.85
272.536254883,5102.0
272.836486816,5163.675
273.136749268,5237.975
273.437011719,5369.05
273.737213135,5487.025
274.037445068,5556.275
274.337677002,5682.45
274.6378479,5785.875
274.938049316,5944.375
275.238220215,6020.45
275.538360596,6197.675
275.838500977,6295.4
276.138641357,6429.225
276.438751221,6506.875
276.738830566,6624.525
277.03894043,6712.275
277.338989258,6846.025
277.639038086,6956.525
277.939056396,7031.075
278.239105225,7118.8
278.539093018,7239.9
278.839141846,7296.45
279.139129639,7368.675
279.439086914,7472.75
279.739044189,7541.775
280.039001465,7659.6
280.338928223,7685.55
280.63885498,7783.95
280.938781738,7856.75
281.238647461,7867.05
281.538513184,7914.85
281.838409424,7976.65
282.138244629,8014.5
282.438079834,8033.225
282.737945557,8091.725
283.037719727,8117.95
283.337524414,8164.525
283.637298584,8177.6
283.937072754,8204.0
284.236816406,8236.25
284.536560059,8225.95
284.836303711,8252.125
285.136016846,8326.175
285.43572998,8331.125
285.735412598,8313.625
286.035064697,8304.8
286.334747314,8367.575
286.634368896,8375.825
286.933990479,8319.5
287.233642578,8267.075
287.533203125,8267.15
287.832824707,8200.85
288.132385254,8112.1
288.431945801,7977.95
288.731506348,7839.0
289.031036377,7678.825
289.330566406,7549.375
289.630065918,7551.85
289.92956543,7531.95
290.229034424,7603.525
290.528503418,7774.05
290.827941895,7938.025
291.127380371,8114.45
291.42678833,8217.675
291.726226807,8382.375
292.025604248,8406.225
292.324981689,8434.3
292.624359131,8446.525
292.923736572,8462.0
293.223052979,8471.15
293.522369385,8468.65
293.821685791,8393.2
294.12097168,8398.575
294.420257568,8356.25
294.719543457,8338.225
295.018768311,8323.55
295.318023682,8231.55
295.617248535,8181.825
295.916442871,8101.975
296.215667725,8071.25
296.514862061,7933.975
296.813995361,7698.25
297.11315918,7508.9
297.412322998,7338.925
297.711425781,7308.225
298.010559082,7470.275
298.309631348,7673.65
298.608734131,7893.175
298.907806396,8076.975
299.206848145,8226.05
299.505889893,8309.775
299.804901123,8412.25
300.103912354,8510.375
300.402954102,8551.25
300.701904297,8619.725
301.00088501,8690.8
301.299835205,8775.575
301.5987854,8807.225
301.897735596,8900.95
302.196624756,8946.75
302.495513916,8985.325
302.794403076,9011.0
303.093292236,9100.35
303.392120361,9159.975
303.690979004,9261.1
303.989837646,9288.5
304.288604736,9325.275
304.587402344,9328.075
304.886199951,9354.325
305.184967041,9434.9
305.483734131,9473.85
305.782501221,9466.35
306.081176758,9520.9
306.37991333,9517.925
306.678619385,9526.425
306.977294922,9554.275
307.275970459,9579.975
307.574645996,9567.325
307.873260498,9570.425
308.171875,9537.6
308.470489502,9580.95
308.769104004,9463.325
309.067687988,9458.9
309.366241455,9499.0
309.664794922,9443.55
309.963348389,9463.2
310.261871338,9436.25
310.560394287,9452.2
310.858856201,9477.2
311.157348633,9521.225
311.455810547,9510.075
311.754272461,9541.325
312.052703857,9588.925
312.351135254,9605.325
312.649536133,9620.95
312.947937012,9615.075
313.246307373,9616.975
313.544647217,9630.675
313.843017578,9557.9
314.141387939,9540.8
314.439697266,9571.35
314.738006592,9473.275
315.036315918,9416.675
315.334564209,9341.25
315.6328125,9269.3
315.931091309,9209.45
316.229309082,9084.875
316.527526855,8927.3
316.825744629,8899.75
317.123901367,8786.35
317.422088623,8751.45
317.720245361,8731.575
318.0184021,8774.925
318.316497803,8795.275
318.614654541,8813.55
318.912750244,8904.65
319.21081543,8889.675
319.50894165,8957.7
319.806945801,8942.55
320.104980469,8929.325
320.403045654,8905.875
320.701049805,8875.875
320.999023438,8875.475
321.297027588,8833.125
321.595001221,8796.425
321.892913818,8767.3
322.190887451,8678.775
322.488830566,8650.075
322.786712646,8587.775
323.084625244,8488.55
323.382507324,8477.9
323.680358887,8367.075
323.978210449,8297.3
324.276062012,8255.725
324.573852539,8172.125
324.871643066,8136.775
325.169464111,8057.225
325.467224121,7997.425
325.764984131,7925.35
326.062744141,7864.25
326.360473633,7779.45
326.658203125,7706.9
326.955871582,7617.625
327.253570557,7553.975
327.551239014,7519.25
327.848907471,7447.15
328.146514893,7357.8
328.444152832,7305.075
328.741790771,7214.9
329.039367676,7183.15
329.336914062,7101.725
329.634521484,7045.525
329.932067871,6985.375
330.229553223,6899.2
330.527160645,6870.15
330.824615479,6807.725
331.12210083,6727.45
331.419586182,6637.975
331.717041016,6576.2
332.014465332,6443.7
332.311920166,6441.825
332.609313965,6369.375
332.906707764,6381.875
333.204101562,6351.55
333.501495361,6362.375
333.798828125,6419.625
334.096160889,6434.35
334.39352417,6511.475
334.690795898,6553.725
334.988098145,6593.075
335.285400391,6658.85
335.582641602,6663.2
335.879882812,6697.75
336.177124023,6717.875
336.474334717,6784.425
336.77154541,6773.175
337.068725586,6805.375
337.365905762,6801.35
337.66305542,6826.85
337.960205078,6829.675
338.257324219,6872.975
338.554443359,6844.85
338.8515625,6878.0
339.148590088,6876.725
339.445648193,6883.175
339.742736816,6847.425
340.039764404,6845.6
340.336761475,6803.4
340.63381958,6750.9
340.930755615,6719.7
341.227722168,6626.35
341.524688721,6522.975
341.821624756,6513.225
342.118560791,6542.525
342.415496826,6605.475
342.712402344,6759.575
343.009246826,6896.625
343.306121826,7004.525
343.602966309,7062.45
343.899810791,7169.675
344.196624756,7241.425
344.493438721,7274.25
344.79019165,7329.925
345.086975098,7359.8
345.383758545,7425.875
345.680480957,7385.95
345.977203369,7401.325
346.273956299,7465.025
346.570617676,7455.775
346.86730957,7459.025
347.163970947,7436.975
347.460601807,7487.65
347.757232666,7477.05
348.053894043,7469.425
348.350463867,7401.575
348.647064209,7396.025
348.943634033,7365.85
349.24017334,7386.55
349.536712646,7329.6
349.833251953,7348.1
350.129760742,7303.425
350.426208496,7281.35
350.722747803,7268.45
351.019195557,7248.4
351.315612793,7197.15
351.612060547,7194.075
351.908508301,7090.775
352.204864502,7044.075
352.501281738,6983.625
352.797637939,6934.2
353.093963623,6833.625
353.390319824,6756.5
353.686645508,6670.85
353.982940674,6612.275
354.27923584,6579.825
354.575531006,6496.8
354.871765137,6506.025
355.167999268,6476.125
355.464233398,6482.525
355.760437012,6477.425
356.056640625,6476.075
356.352813721,6483.35
356.648956299,6470.425
356.945129395,6494.65
357.241271973,6477.9
357.537384033,6516.025
357.833496094,6449.35
358.129577637,6425.025
358.425628662,6394.825
358.721679688,6352.975
359.017730713,6367.4
359.313720703,6296.325
359.609710693,6273.4
359.905761719,6208.875
360.201721191,6165.45
360.497650146,6072.95
360.793609619,6072.975
361.089538574,6002.75
361.385437012,5916.8
361.681365967,5845.15
361.977233887,5807.675
362.273071289,5741.25
362.568908691,5644.15
362.864746094,5496.825
363.160552979,5367.3
363.456359863,5175.425
363.752166748,5040.45
364.047912598,4971.7
364.343658447,4925.5
364.639434814,4962.375
364.935119629,4984.6
365.230834961,5037.875
365.526550293,5077.225
365.822174072,5073.6
366.117858887,5093.875
366.413482666,5138.625
366.709075928,5164.575
367.004730225,5063.55
367.300292969,5069.8
367.595855713,5090.25
367.891448975,4990.3
368.186981201,4891.225
368.482513428,4843.425
368.778015137,4830.5
369.073547363,4761.4
369.36895752,4788.55
369.664428711,4675.3
369.95993042,4577.325
370.255310059,4514.225
370.550720215,4495.55
370.846160889,4454.225
371.14151001,4418.125
371.436859131,4383.25
371.73223877,4361.075
372.027557373,4313.65
372.322875977,4259.1
372.618164062,4239.45
372.913482666,4194.3
373.208709717,4153.075
373.503967285,4088.625
373.799194336,4053.675
374.094421387,4053.875
374.389648438,4020.85
374.684844971,4027.425
374.979980469,4072.125
375.275146484,4071.55
375.570281982,4077.675
375.865386963,4090.525
376.160522461,4034.9
376.455596924,4040.175
376.750640869,4125.575
377.045715332,4143.95
377.340759277,4173.45
377.635772705,4231.3
377.93081665,4263.2
378.225769043,4338.85
378.520751953,4397.525
378.815734863,4361.05
379.110656738,4505.675
379.405548096,4684.9
379.700500488,4534.075
379.995391846,4306.375
380.290252686,4343.625
380.585083008,4448.5
380.879974365,4510.575
381.17477417,4404.3
381.469543457,4334.25
381.764404297,4326.85
382.059143066,4354.8
382.353912354,4429.3
382.648651123,4535.2
382.943389893,4496.2
383.238067627,4349.25
383.532775879,4333.45
383.827484131,4267.175
384.12210083,4272.275
384.416778564,4215.65
384.711425781,4108.4
385.006011963,4157.975
385.300628662,4126.95
385.595184326,4199.075
385.88973999,4299.675
386.184295654,4378.625
386.478820801,4475.75
386.77331543,4575.275
387.067840576,4681.025
387.362335205,4779.9
387.656768799,4844.275
387.951202393,4866.75
388.245635986,4940.675
388.540039062,5014.75
388.834472656,5071.85
389.128875732,4965.5
389.423187256,4753.75
389.717559814,4703.15
390.011871338,4816.25
390.306182861,4833.975
390.600463867,4863.175
390.894775391,4918.9
391.189025879,4949.125
391.48324585,4950.0
391.777526855,4986.4
392.071685791,5197.575
392.365875244,5281.2
392.660064697,5363.525
392.95425415,5684.275
393.248382568,5674.5
393.542510986,5202.05
393.836608887,5017.45
394.130706787,5025.65
394.424804688,4948.925
394.71887207,5103.925
395.012878418,5076.925
395.306915283,4956.7
395.600921631,4876.475
395.894927979,4870.55
396.188903809,4906.95
396.482879639,4912.1
396.776794434,5117.525
397.070739746,5099.575
397.364654541,5108.4
397.658538818,5501.15
397.952423096,5530.575
398.246307373,5490.7
398.540100098,6024.6
398.833953857,5884.7
399.127746582,5400.025
399.421508789,5415.55
399.715301514,5352.65
400.009063721,5266.675
400.30279541,5111.425
400.596496582,5017.85
400.890258789,5183.375
401.183929443,5266.725
401.47756958,5161.225
401.771240234,4923.325
402.064880371,4907.5
402.35848999,4983.925
402.652130127,4894.7
402.945678711,4962.375
403.239257812,4900.075
403.532775879,4850.325
403.82635498,4886.35
404.119842529,4811.275
404.413360596,4813.4
404.706848145,4866.85
405.000274658,4795.15
405.293762207,4866.925
405.587188721,4937.475
405.880584717,4787.25
406.17401123,4580.5
406.467407227,4360.05
406.760742188,4399.775
407.054107666,4441.65
407.347442627,4349.85
407.640716553,4358.0
407.934051514,4390.875
408.227325439,4476.75
408.520568848,4698.675
408.813842773,4766.55
409.107086182,4557.625
409.400238037,4539.025
409.693450928,4454.1
409.986633301,4570.625
410.279754639,4478.975
410.572875977,4191.65
410.86605835,4100.825
411.159118652,4153.6
411.452209473,4149.675
411.745330811,4026.825
412.038360596,3935.075
412.331390381,3974.0
412.624420166,4006.275
412.917388916,3931.625
413.210388184,3732.525
413.503387451,3714.35
413.796295166,3609.45
414.089233398,3427.075
414.382141113,3352.525
414.675048828,3334.7
414.967926025,3372.125
415.260803223,3324.075
415.55368042,3338.325
415.846466064,3293.95
416.139282227,3382.25
416.432098389,3511.25
416.724853516,3488.9
417.017608643,3451.65
417.31036377,3451.45
417.603088379,3600.925
417.895782471,3570.375
418.188476562,3527.95
418.481140137,3610.525
418.773803711,3666.925
419.066436768,3639.1
419.359039307,3704.75
419.651641846,3721.025
419.944244385,3711.075
420.236816406,3671.725
420.529327393,3884.4
420.821899414,3958.575
421.114379883,3873.2
421.406860352,4171.15
421.699371338,4383.6
421.991821289,4349.075
422.284240723,4119.825
422.576721191,3981.475
422.869110107,3869.025
423.161468506,3819.35
423.453857422,3858.9
423.74621582,3720.55
424.038543701,3601.125
424.330871582,3555.825
424.623168945,3497.75
424.915435791,3639.7
425.207702637,3602.1
425.499969482,3545.4
425.792205811,3473.325
426.084411621,3233.15
426.376617432,3329.675
426.668762207,3392.875
426.9609375,3268.975
427.253082275,3383.45
427.545196533,3807.175
427.837310791,3523.1
428.129425049,3231.025
428.421447754,3441.725
428.713531494,3443.375
429.005554199,3439.125
429.297576904,3450.85
429.589599609,3896.575
429.881561279,4219.725
430.173522949,3988.175
430.465484619,3947.975
430.757415771,4031.325
431.049316406,3792.55
431.341186523,3554.025
431.633117676,3444.375
431.924957275,3128.4
432.21673584,3023.825
432.508636475,3174.95
432.800415039,3191.975
433.092163086,3070.85
433.383972168,3066.775
433.675689697,3787.325
433.967437744,4302.7
434.259155273,3317.325
434.550872803,2990.475
434.842498779,3048.75
435.134185791,3183.025
435.425842285,3221.8
435.717437744,3110.825
436.009063721,2924.55
436.30065918,3053.2
436.592224121,3410.625
436.883758545,3233.2
437.175323486,2958.4
437.466827393,2919.225
437.758331299,2942.6
438.049804688,2947.4
438.341247559,3028.5
438.63269043,3094.0
438.924163818,3088.325
439.215515137,3052.675
439.50692749,2957.375
439.798309326,2962.725
440.089660645,2975.95
440.380981445,2883.6
440.672332764,2880.55
440.963623047,3135.85
441.254882812,3629.95
441.546173096,3812.8
441.837402344,3552.425
442.128631592,3346.825
442.41986084,3332.825
442.711029053,3214.3
443.002197266,3286.4
443.293365479,3470.9
443.584503174,3607.65
443.875610352,3574.4
444.166717529,3307.7
444.457794189,3356.95
444.748840332,3346.475
445.039916992,3289.5
445.330932617,3395.075
445.621948242,3224.125
445.912963867,3022.375
446.203918457,3272.65
446.494812012,3513.825
446.785827637,3299.425
447.076721191,3098.925
447.367584229,3093.25
447.658447266,3065.55
447.949371338,3116.4
448.24017334,2997.525
448.530975342,2909.975
448.821838379,3105.325
449.112579346,3178.975
449.40335083,3105.925
449.694152832,3124.725
449.984863281,3139.6
450.27557373,3067.8
450.56628418,3124.95
450.856933594,3155.45
451.147583008,2984.325
451.438262939,2887.75
451.728881836,3092.825
452.019470215,3193.8
452.310089111,2976.925
452.600646973,3014.425
452.891174316,3064.15
453.181732178,2874.35
453.472229004,2744.925
453.762695312,2860.375
454.053222656,2897.475
454.343658447,2755.175
454.634063721,2687.325
454.924530029,2874.625
455.214935303,3016.375
455.505279541,3078.2
455.795715332,2945.8
456.086029053,2740.3
456.376312256,2707.875
456.666687012,2756.025
456.956939697,2862.175
457.247192383,2868.7
457.537445068,2941.175
457.827728271,3129.5
458.117919922,3055.925
458.408081055,2962.075
458.698303223,3162.775
458.988433838,3102.6
459.278564453,2910.8
459.568725586,3197.475
459.858825684,3313.35
460.148864746,2998.325
460.438995361,2953.275
460.729034424,3011.05
461.019042969,3025.45
461.309082031,3222.15
461.599060059,3096.15
461.889007568,2616.475
462.179016113,2440.125
462.468933105,2685.825
462.75881958,2795.225
463.048736572,2533.775
463.338592529,2799.025
463.628448486,3178.125
463.918365479,2888.65
464.2081604,3054.025
464.497924805,3010.325
464.787780762,3138.8
465.077514648,3469.475
465.367218018,3070.375
465.657012939,3271.425
465.946685791,3699.85
466.236358643,3289.75
466.526092529,2746.875
466.815734863,2736.5
467.105316162,2658.85
467.394927979,2696.025
467.684570312,2553.925
467.974121094,2626.85
468.263671875,2741.825
468.553222656,2523.725
468.842773438,2413.575
469.132232666,2308.7
469.42175293,2329.3
469.711212158,2318.8
470.000640869,2179.15
470.290100098,2242.725
470.579498291,2275.35
470.868835449,2275.25
471.158294678,2236.85
471.447601318,2222.2
471.736907959,2285.2
472.026275635,2362.375
472.315551758,2338.025
472.604797363,2330.875
472.894104004,2478.8
473.183319092,2587.1
473.47253418,2569.55
473.761779785,2565.0
474.05090332,2494.775
474.340087891,2447.4
474.629241943,2372.55
474.918365479,2550.25
475.207427979,2827.325
475.496551514,2869.575
475.785614014,2582.275
476.074645996,2383.825
476.363708496,2484.25
476.652679443,2629.225
476.941650391,2440.85
477.230682373,2284.55
477.519622803,2296.425
477.808502197,2434.1
478.097412109,2713.15
478.386352539,2674.375
478.675201416,2392.625
478.964050293,2287.525
479.25289917,2484.125
479.541717529,2539.925
479.830474854,2372.025
480.11932373,2742.15
480.408050537,2914.775
480.696777344,2514.05
480.985534668,2381.9
481.274200439,2493.425
481.562866211,2737.525
481.851593018,2766.125
482.140197754,2709.325
482.428833008,2535.1
482.717468262,2330.825
483.006011963,2354.8
483.294586182,2485.825
483.5831604,2525.05
483.871673584,2376.5
484.16015625,2542.1
484.448699951,2769.5
484.7371521,2821.7
485.02557373,2834.875
485.314025879,2556.025
485.602416992,3960.85
485.890777588,14008.75
486.179199219,12500.85
486.467559814,3368.675
486.755859375,2436.05
487.044219971,2844.125
487.332519531,3037.95
487.620758057,2619.65
487.908966064,2334.225
488.197265625,2139.375
488.485473633,2034.6
488.773651123,2147.325
489.061859131,2150.65
489.350006104,2084.975
489.638122559,2025.175
489.926300049,2052.525
490.214355469,2004.5
490.502441406,1957.475
490.790527344,1877.2
491.078552246,2076.3
491.366546631,2078.575
491.654602051,1825.525
491.942565918,1918.45
492.230499268,1972.225
492.518493652,1924.425
492.806396484,1954.325
493.094268799,1862.1
493.382202148,1904.225
493.670074463,2026.925
493.957885742,1878.55
494.245727539,1862.3
494.533508301,2048.725
494.821289062,1928.1
495.109100342,1759.7
495.396850586,1720.275
495.684539795,1663.225
495.972290039,1886.2
496.25994873,2249.925
496.547607422,2269.025
496.835296631,2069.55
497.122894287,1731.625
497.410522461,1637.75
497.6980896,1648.95
497.985687256,1599.925
498.273223877,1717.55
498.560760498,1790.3
498.848266602,1807.9
499.135772705,1791.725
499.423217773,1832.875
499.710693359,1943.55
499.998138428,1884.45
500.285522461,1708.35
500.572937012,1616.525
500.860290527,1689.55
501.147644043,1790.3
501.434997559,2019.35
501.722290039,1888.5
502.00958252,1640.375
502.296875,1929.2
502.584106445,1911.25
502.871337891,1716.7
503.158599854,1795.5
503.445770264,1886.0
503.732910156,1864.925
504.020141602,1656.85
504.307220459,1638.05
504.594329834,1678.0
504.881469727,1617.05
505.168518066,1684.575
505.455535889,1764.975
505.742614746,1629.525
506.029632568,1556.65
506.316589355,1760.375
506.603637695,1845.775
506.890563965,1648.825
507.177459717,1460.6
507.464385986,1382.95
507.751312256,1607.025
508.038146973,1710.0
508.325012207,1551.525
508.611877441,1616.3
508.898681641,1635.95
509.185424805,1460.725
509.472259521,1414.7
509.759002686,1510.25
510.045715332,1536.225
510.332458496,1481.8
510.619140625,1542.4
510.905761719,1449.725
511.192504883,1441.15
511.479095459,1489.325
511.765686035,1438.375
512.052307129,1343.675
512.338928223,1295.225
512.625427246,1342.15
512.91204834,1416.8
513.198486328,1396.625
513.484985352,1348.525
513.77142334,1282.075
514.057922363,1314.35
514.344299316,1320.2
514.63079834,1280.325
514.917175293,1275.575
515.203552246,1165.8
515.489868164,1143.5
515.776245117,1265.55
516.0625,1319.2
516.348815918,1214.0
516.635070801,1248.6
516.921325684,1306.8
517.207580566,1260.0
517.493774414,1145.1
517.779968262,1156.075
518.066101074,1182.4
518.352294922,1150.625
518.638366699,1143.8
518.924499512,1239.275
519.210632324,1315.875
519.496643066,1276.25
519.782714844,1167.875
520.068786621,1132.575
520.354736328,1088.075
520.640686035,1048.375
520.926757812,1096.75
521.212646484,1171.825
521.498535156,1192.15
521.784484863,1125.725
522.0703125,1050.625
522.356262207,1078.9
522.642089844,1161.55
522.927856445,1150.65
523.213684082,1138.4
523.499511719,1124.85
523.78527832,1168.15
524.070983887,1233.775
524.356750488,1202.85
524.64239502,1166.625
524.928039551,1148.525
525.213806152,1173.375
525.499389648,1157.6
525.784973145,1183.25
526.070617676,1230.0
526.356140137,1193.7
526.641723633,1209.975
526.927307129,1271.85
527.212768555,1273.075
527.498291016,1247.3
527.783752441,1256.425
528.069213867,1232.025
528.354675293,1255.7
528.640014648,1416.35
528.925476074,1495.175
529.21081543,1407.525
529.496154785,1402.5
529.781555176,1349.55
530.066833496,1379.7
530.352050781,1400.375
530.637390137,1376.65
530.922607422,1374.625
531.207824707,1367.15
531.493041992,1353.625
531.778198242,1429.925
532.063354492,1407.875
532.348571777,1350.325
532.633666992,1369.95
532.918762207,1452.125
533.203857422,1545.45
533.488891602,1567.575
533.773925781,1507.675
534.059020996,1484.875
534.343933105,1506.95
534.628967285,1487.85
534.91394043,1509.725
535.198852539,1519.4
535.483703613,1493.625
535.768676758,1427.45
536.053527832,1438.675
536.338317871,1396.575
536.62322998,1319.525
536.90802002,1292.7
537.192810059,1322.925
537.477539062,1413.875
537.762329102,1456.475
538.047058105,1487.55
538.331726074,1515.775
538.616455078,1516.65
538.901123047,1479.975
539.18572998,1530.85
539.470397949,1539.575
539.755004883,1533.375
540.039550781,1488.65
540.32409668,1437.975
540.608703613,1487.225
540.893188477,1579.125
541.17767334,1606.5
541.462158203,1611.5
541.746643066,1550.925
542.031066895,1591.825
542.315429688,1629.475
542.59979248,1621.75
542.884216309,1606.025
543.168579102,1611.875
543.452941895,1605.15
543.737243652,1668.3
544.021484375,1709.725
544.305725098,1699.675
544.590026855,1688.0
544.874267578,1697.325
545.158447266,1752.475
545.442626953,1688.625
545.726806641,1562.675
546.010925293,1597.5
546.29510498,1636.75
546.579162598,1624.5
546.863220215,1653.35
547.147277832,1730.725
547.431335449,1816.075
547.715332031,1880.375
547.999328613,2005.3
548.283325195,2012.375
548.567260742,1843.225
548.851135254,1826.125
549.135070801,1778.05
549.419006348,1697.45
549.702819824,1797.8
549.986755371,1860.725
550.270507812,1834.0
550.554321289,1879.875
550.83807373,1895.0
551.121826172,1845.05
551.405517578,1869.9
551.689331055,1978.175
551.973022461,2220.5
552.256652832,2280.675
552.540344238,2176.225
552.823974609,2169.075
553.107543945,2153.65
553.391174316,2202.875
553.674743652,2257.575
553.958251953,2270.625
554.241821289,2281.925
554.525268555,2212.2
554.808776855,2204.7
555.092285156,2411.025
555.375671387,2505.975
555.659057617,2489.125
555.942504883,2521.725
556.225891113,2551.175
556.509216309,2507.25
556.792541504,2426.225
557.075866699,2491.675
557.359130859,2534.4
557.64239502,2523.025
557.92565918,2620.025
558.208862305,2591.75
558.49206543,2518.375
558.77532959,2536.55
559.058410645,2583.475
559.341552734,2570.575
559.624694824,2629.05
559.907775879,2714.7
560.190856934,2847.875
560.473937988,2833.2
560.756896973,2868.225
561.039978027,2894.675
561.322937012,2841.3
561.605895996,2842.525
561.88885498,2803.725
562.171813965,2801.9
562.454650879,2802.35
562.737548828,2830.525
563.020446777,2900.95
563.303283691,2923.2
563.58605957,2943.85
563.868896484,2981.25
564.151672363,3030.4
564.434387207,3069.25
564.717163086,3033.2
564.99987793,3076.425
565.282531738,3140.775
565.565185547,3071.0
565.847839355,3090.4
566.130432129,3205.125
566.413085938,3183.7
566.695678711,3203.3
566.978149414,3317.875
567.260681152,3463.25
567.543273926,3540.5
567.825744629,3433.15
568.108154297,3476.3
568.390686035,3610.8
568.673095703,3713.475
568.955505371,3764.95
569.237854004,3801.4
569.520202637,4102.4
569.802490234,4287.475
570.084838867,4280.35
570.367126465,4107.45
570.649414062,4129.7
570.93170166,4472.45
571.213928223,4559.225
571.496154785,4296.875
571.778381348,4520.6
572.06048584,4789.075
572.342590332,4327.1
572.624755859,3977.0
572.906860352,4037.05
573.188903809,4738.2
573.470947266,5007.75
573.752990723,4753.35
574.03503418,4861.225
574.317016602,5241.05
574.598937988,5035.75
574.88092041,4923.725
575.162841797,5093.8
575.444763184,4712.8
575.726623535,4444.875
576.008483887,4484.725
576.290344238,4901.05
576.572143555,5107.05
576.853881836,5186.775
577.135681152,5072.05
577.417419434,5128.825
577.699157715,6021.525
577.980895996,6186.7
578.262573242,5512.65
578.544128418,5012.075
578.825866699,4948.55
579.107421875,4638.825
579.388977051,4816.2
579.670593262,5240.65
579.952148438,5063.5
580.233642578,5168.525
580.515197754,5298.45
580.796691895,4967.05
581.078125,5144.7
581.359619141,6708.05
581.640991211,6817.15
581.922363281,5872.1
582.203796387,5916.425
582.485107422,5533.25
582.766418457,5148.675
583.047790527,4979.2
583.329040527,4869.3
583.610290527,4716.625
583.891540527,4837.4
584.172790527,5154.45
584.453918457,5170.975
584.735107422,5236.8
585.016235352,5701.85
585.297363281,5646.675
585.578552246,5453.275
585.859619141,5380.0
586.140625,5145.275
586.421630859,5002.725
586.702697754,5060.45
586.983642578,5285.45
587.264648438,5467.675
587.545654297,5393.9
587.826477051,5337.25
588.107421875,5159.85
588.388305664,5199.775
588.669189453,5281.2
588.950012207,5111.275
589.230834961,5025.275
589.511657715,5106.6
589.792358398,5196.8
590.073120117,5213.85
590.353881836,5193.7
590.63458252,5192.55
590.915283203,5171.1
591.195922852,5145.9
591.4765625,5194.65
591.757202148,5229.775
592.037780762,5212.9
592.31829834,5239.0
592.598937988,5440.65
592.879394531,5614.65
593.159912109,5515.975
593.440429688,5440.55
593.720825195,5451.0
594.001281738,5411.65
594.281677246,5330.625
594.562072754,5332.875
594.842407227,5436.1
595.122802734,5491.375
595.403137207,5459.1
595.683410645,5424.2
595.963623047,5413.525
596.243896484,5367.625
596.524169922,5364.9
596.804382324,5390.9
597.084533691,5430.25
597.364746094,5455.7
597.644836426,5477.05
597.924987793,5442.825
598.205078125,5408.85
598.485107422,5456.15
598.765197754,5556.025
599.045227051,5602.45
599.325195312,5531.875
599.605224609,5494.15
599.885192871,5532.75
600.165100098,5574.625
600.445007324,5508.975
600.724914551,5516.225
601.004760742,5527.3
601.284667969,5539.3
601.56451416,5520.375
601.844238281,5527.45
602.124084473,5534.25
602.403808594,5519.525
602.683532715,5560.4
602.963256836,5547.225
603.242919922,5614.875
603.522583008,5641.6
603.802246094,5596.8
604.081848145,5563.275
604.36138916,5533.85
604.641052246,5561.05
604.920532227,5538.6
605.200073242,5564.0
605.479614258,5585.975
605.759094238,5633.625
606.038574219,5620.6
606.317932129,5568.7
606.597412109,5564.325
606.87677002,5588.275
607.15612793,5610.575
607.435546875,5622.825
607.714782715,5634.8
607.99407959,5567.35
608.273376465,5563.2
608.552612305,5591.15
608.831848145,5599.4
609.111083984,5603.825
609.390258789,5585.75
609.669433594,5573.15
609.948608398,5631.025
610.227722168,5600.9
610.506713867,5552.0
610.785888672,5566.2
611.064880371,5556.525
611.34387207,5568.25
611.622924805,5610.475
611.901916504,5591.575
612.180847168,5549.45
612.459777832,5532.025
612.738647461,5530.45
613.01751709,5512.425
613.296447754,5453.825
613.575317383,5427.3
613.854064941,5371.925
614.132873535,5258.275
614.411621094,5249.325
614.690368652,5200.85
614.969177246,5133.3
615.247802734,5075.225
615.526489258,5050.15
615.805175781,4934.25
616.08380127,4826.4
616.362365723,4732.15
616.640991211,4692.8
616.919555664,4634.925
617.198059082,4744.125
617.4765625,5026.35
617.755126953,5171.675
618.033569336,5199.5
618.311950684,5174.8
618.590454102,5182.9
618.868774414,5162.225
619.147155762,5166.875
619.425598145,5129.8
619.703857422,5167.85
619.982177734,5167.35
620.260498047,5156.4
620.538757324,5152.875
620.816955566,5117.375
621.095214844,5071.925
621.373413086,5087.4
621.651550293,5148.5
621.929748535,5184.5
622.207824707,5153.175
622.485900879,5187.0
622.764038086,5178.9
623.042053223,5208.075
623.320007324,5231.275
623.598083496,5214.7
623.876037598,5205.4
624.153991699,5216.275
624.432006836,5254.35
624.709838867,5239.775
624.987731934,5242.525
625.265563965,5255.275
625.543395996,5266.25
625.821228027,5313.125
626.098999023,5294.775
626.376831055,5337.45
626.654541016,5358.875
626.932250977,5405.625
627.209960938,5454.025
627.487670898,5462.775
627.765319824,5475.725
628.04296875,5479.025
628.320495605,5501.175
628.598083496,5505.9
628.875671387,5530.0
629.153259277,5572.75
629.430725098,5631.775
629.708251953,5605.65
629.985656738,5631.975
630.263122559,5651.35
630.540588379,5683.5
630.817932129,5703.775
631.095275879,5740.15
631.372680664,5779.975
631.649963379,5831.375
631.927246094,5870.3
632.204589844,5890.6
632.481811523,5962.0
632.759033203,6035.4
633.036254883,6080.65
633.313415527,6133.975
633.590576172,6205.6
633.867736816,6307.95
634.144836426,6352.75
634.421875,6396.7
634.698913574,6481.225
634.976013184,6502.275
635.252990723,6582.325
635.529968262,6626.025
635.807006836,6700.4
636.08392334,6679.275
636.360839844,6574.825
636.637756348,6503.35
636.914611816,6473.4
637.191467285,6444.1
637.468261719,6542.375
637.745056152,6474.0
638.021789551,6519.35
638.298583984,6543.525
638.575317383,6576.925
638.851989746,6585.3
639.12878418,6583.9
639.405395508,6567.975
639.682006836,6602.8
639.958618164,6595.9
640.235229492,6557.275
640.511779785,6640.05
640.788330078,6600.175
641.064880371,6616.125
641.341308594,6604.175
641.617797852,6610.0
641.894226074,6596.925
642.170654297,6632.1
642.44708252,6636.6
642.723388672,6616.15
642.999755859,6590.675
643.276123047,6622.125
643.552429199,6578.375
643.828674316,6632.55
644.104919434,6576.3
644.381164551,6584.5
644.657348633,6577.425
644.933532715,6560.25
645.209716797,6572.975
645.485839844,6569.85
645.761901855,6578.85
646.038024902,6563.0
646.314086914,6598.45
646.590087891,6560.95
646.866149902,6615.625
647.142150879,6566.5
647.41809082,6528.675
647.694030762,6538.725
647.969970703,6529.75
648.245788574,6571.525
648.521728516,6554.45
648.797546387,6539.975
649.073303223,6557.025
649.349182129,6541.125
649.624938965,6550.225
649.900634766,6545.425
650.176391602,6547.275
650.452087402,6515.125
650.727783203,6533.125
651.003479004,6540.45
651.279052734,6521.975
651.554626465,6525.675
651.83026123,6505.25
652.105773926,6533.975
652.381286621,6487.1
652.656860352,6533.9
652.932312012,6562.325
653.207763672,6530.55
653.483215332,6563.925
653.758605957,6539.3
654.033935547,6565.2
654.309326172,6572.9
654.584716797,6567.325
654.859985352,6548.725
655.135253906,6576.6
655.410583496,6622.125
655.685791016,7586.75
655.9609375,11837.25
656.236206055,11605.45
656.511291504,7686.65
656.786437988,6749.2
657.061645508,6661.175
657.336669922,6642.2
657.611694336,6654.9
657.886779785,6681.55
658.161804199,6711.65
658.436828613,6675.425
658.711791992,6692.7
658.986755371,6706.55
659.261657715,6731.0
659.536621094,6745.675
659.811401367,6735.175
660.086303711,6781.85
660.36114502,6765.225
660.635864258,6748.625
660.910644531,6794.575
661.185424805,6791.1
661.460205078,6820.6
661.734863281,6829.325
662.009521484,6820.4
662.284179688,6835.875
662.558776855,6860.4
662.833435059,6897.2
663.108032227,6919.725
663.382568359,6890.25
663.657043457,6926.6
663.93157959,6956.875
664.206054688,6924.25
664.48046875,6993.625
664.755004883,7020.15
665.02935791,7029.7
665.303710938,7050.375
665.578125,7090.325
665.852416992,7051.075
666.126708984,7065.0
666.401062012,7087.55
666.675292969,7110.8
666.949462891,7117.975
667.223754883,7112.125
667.497924805,7151.525
667.772094727,7181.65
668.046264648,7155.5
668.3203125,7219.725
668.594421387,7250.675
668.868469238,7233.95
669.14251709,7255.7
669.416503906,7291.95
669.690551758,7293.45
669.964477539,7307.2
670.23840332,7342.25
670.512329102,7329.175
670.786254883,7308.225
671.060058594,7373.8
671.333984375,7370.6
671.607788086,7417.775
671.881530762,7387.275
672.155334473,7427.825
672.429077148,7464.425
672.702758789,7479.775
672.97644043,7448.425
673.25012207,7456.325
673.523742676,7450.475
673.797302246,7472.375
674.070922852,7538.425
674.344482422,7553.8
674.618041992,7526.325
674.891601562,7548.5
675.165100098,7567.825
675.438476562,7564.075
675.711975098,7585.35
675.985412598,7565.65
676.258789062,7575.75
676.532165527,7614.675
676.805480957,7586.675
677.078796387,7646.7
677.352111816,7643.325
677.625366211,7641.85
677.898620605,7637.425
678.171875,7702.275
678.445007324,7687.35
678.718200684,7720.2
678.991394043,7699.35
679.264404297,7715.75
679.537536621,7741.3
679.81060791,7770.3
680.083679199,7769.35
680.356689453,7792.125
680.629699707,7809.5
680.902648926,7784.175
681.175598145,7848.775
681.448547363,7867.45
681.721435547,7811.85
681.99420166,7826.975
682.267150879,7808.975
682.539916992,7877.175
682.812744141,7861.475
683.085510254,7834.8
683.358215332,7899.6
683.63092041,7887.575
683.903625488,7872.175
684.176330566,7902.9
684.448913574,7863.1
684.721557617,7851.875
684.99420166,7956.725
685.266662598,7934.45
685.539245605,7945.8
685.811767578,7965.9
686.084289551,7978.4
686.356689453,8008.175
686.629150391,8038.0
686.901550293,8055.225
687.17401123,8043.25
687.446350098,8097.15
687.718688965,8084.675
687.990966797,8148.15
688.263305664,8155.025
688.535522461,8138.925
688.807739258,8148.8
689.079956055,8175.375
689.352172852,8211.575
689.624328613,8202.3
689.896484375,8225.325
690.168518066,8230.8
690.440612793,8268.775
690.71270752,8305.3
690.984741211,8303.125
691.256713867,8325.5
691.528747559,8310.275
691.800720215,8332.325
692.072631836,8346.25
692.344543457,8379.575
692.616394043,8384.05
692.888244629,8387.025
693.160095215,8447.325
693.431945801,8490.25
693.703674316,8425.4
693.975463867,8433.95
694.247131348,8485.875
694.518859863,8475.05
694.790588379,8521.15
695.062255859,8527.35
695.33380127,8505.65
695.60546875,8490.9
695.87701416,8531.15
696.148498535,8538.825
696.42010498,8587.275
696.691589355,8611.775
696.96307373,8630.875
697.234558105,8675.325
697.50592041,8657.375
697.777282715,8684.15
698.048706055,8698.1
698.320068359,8739.8
698.591308594,8665.475
698.862670898,8699.275
699.133972168,8751.2
699.405151367,8724.0
699.676391602,8798.225
699.947570801,8757.675
700.21875,8779.475
700.489868164,8799.95
700.761047363,8787.9
701.032104492,8830.325
701.303100586,8794.95
701.57421875,8851.3
701.845214844,8846.65
702.116149902,8896.425
702.387207031,8875.475
702.65814209,8913.875
702.928955078,8960.35
703.199951172,8910.7
703.47076416,8873.3
703.741577148,8882.275
704.012451172,8956.275
704.28314209,8957.225
704.553955078,8951.075
704.824707031,8995.525
705.095397949,9004.95
705.366027832,9014.225
705.63671875,9045.0
705.907348633,8989.625
706.17791748,9022.925
706.448486328,9035.725
706.719055176,9076.975
706.989562988,9062.4
707.260131836,9114.35
707.530517578,9097.75
707.800964355,9108.175
708.071411133,9095.875
708.341796875,9076.775
708.612182617,9085.775
708.882446289,9052.675
709.152893066,9088.875
709.423156738,9107.875
709.693359375,9087.575
709.963623047,9110.075
710.233825684,9128.725
710.503967285,9105.95
710.774169922,9119.55
711.044311523,9106.475
711.31439209,9109.5
711.584533691,9125.375
711.854553223,9141.375
712.124572754,9167.1
712.39465332,9089.575
712.664611816,9170.25
712.934509277,9224.675
713.204467773,9183.675
713.474365234,9205.325
713.74420166,9216.725
714.014099121,9265.325
714.283874512,9211.975
714.553710938,9225.65
714.823486328,9224.6
715.093200684,9235.1
715.362915039,9256.75
715.632629395,9224.35
715.902282715,9207.55
716.171875,9216.95
716.441589355,9222.575
716.711181641,9199.025
716.980712891,9213.75
717.250244141,9236.7
717.519775391,9204.125
717.78918457,9211.95
718.058654785,9287.05
718.328125,9291.15
718.597473145,9260.075
718.866882324,9239.375
719.136230469,9261.1
719.405578613,9311.075
719.674865723,9319.45
719.944152832,9294.25
720.213439941,9282.0
720.48260498,9299.025
720.75177002,9346.875
721.020996094,9327.575
721.290100098,9304.5
721.559204102,9280.3
721.828308105,9291.5
722.097351074,9334.3
722.366455078,9324.225
722.635437012,9288.125
722.904418945,9267.0
723.173400879,9330.975
723.442321777,9355.6
723.711181641,9292.05
723.980102539,9360.35
724.248962402,9310.525
724.51776123,9312.125
724.786560059,9316.725
725.055358887,9362.1
725.324035645,9310.9
725.592834473,9307.525
725.86151123,9293.35
726.130187988,9278.425
726.398803711,9293.375
726.667419434,9303.175
726.935974121,9267.525
727.204528809,9265.325
727.473083496,9245.525
727.741638184,9231.025
728.010070801,9176.5
728.278564453,9233.375
728.546936035,9191.225
728.815368652,9134.85
729.08380127,9073.6
729.352111816,9030.375
729.620361328,8968.3
729.88873291,8998.375
730.156982422,9077.525
730.425231934,9080.075
730.693481445,9063.225
730.961669922,9103.725
731.229797363,9151.675
731.49798584,9178.3
731.766113281,9225.65
732.034118652,9308.475
732.302246094,9344.0
732.570251465,9411.775
732.838256836,9419.45
733.106262207,9495.15
733.374145508,9504.7
733.642089844,9575.5
733.909973145,9625.825
734.177856445,9701.85
734.445678711,9798.25
734.713562012,9899.95
734.981323242,9894.075
735.249084473,9951.35
735.516845703,10133.45
735.784545898,10185.575
736.052185059,10238.7
736.319885254,10327.025
736.587524414,10392.15
736.855102539,10443.5
737.122619629,10555.2
737.390197754,10606.125
737.657714844,10737.625
737.925170898,10771.5
738.192749023,10891.0
738.460144043,10983.975
738.727539062,11019.175
738.994995117,11113.1
739.262329102,11204.375
739.529663086,11313.05
739.79699707,11342.425
740.06427002,11400.35
740.331481934,11472.45
740.598754883,11534.675
740.865905762,11541.475
741.133056641,11719.15
741.40032959,11726.1
741.667358398,11824.6
741.934448242,11856.7
742.201599121,11883.575
742.468566895,12013.025
742.735534668,12071.2
743.002563477,12129.725
743.26953125,12102.775
743.536437988,12191.225
743.803405762,12298.35
744.0703125,12222.775
744.337097168,12329.15
744.604003906,12257.325
744.870727539,12333.2
745.137512207,12383.25
745.40423584,12398.175
745.670959473,12325.475
745.93762207,12362.975
746.204284668,12412.8
746.470947266,12403.15
746.737548828,12409.125
747.004089355,12430.15
747.270751953,12462.475
747.53717041,12482.825
747.803710938,12439.95
748.070251465,12415.225
748.336608887,12443.625
748.603027344,12372.6
748.869445801,12427.65
749.135803223,12415.1
749.402099609,12424.025
749.668457031,12440.975
749.934753418,12353.1
750.20098877,12361.075
750.467224121,12395.275
750.733459473,12317.875
750.999572754,12313.0
751.26574707,12230.6
751.531860352,12289.275
751.797912598,12253.725
752.064025879,12192.875
752.330078125,12198.875
752.596069336,12171.1
752.862060547,12113.45
753.127990723,12118.325
753.393920898,12064.3
753.659912109,12042.75
753.925720215,12099.2
754.19152832,12034.8
754.457397461,11970.25
754.723144531,11958.675
754.988952637,11888.125
755.254699707,11943.325
755.520385742,11958.775
755.786071777,11946.4
756.051696777,11919.7
756.317382812,11835.05
756.582946777,11842.375
756.848510742,11836.875
757.114074707,11783.625
757.379577637,11763.0
757.645080566,11835.875
757.910583496,11773.425
758.175964355,11724.55
758.441345215,11683.925
758.706848145,11552.125
758.972106934,11513.4
759.237426758,11550.6
759.502807617,11584.65
759.768005371,11588.825
760.03326416,11551.5
760.298522949,11461.3
760.563659668,11530.225
760.828857422,11466.775
761.093994141,11473.125
761.359130859,11429.75
761.624206543,11385.225
761.889282227,11367.075
762.15423584,11333.725
762.419250488,11351.775
762.684265137,11261.775
762.949157715,11232.875
763.214050293,11223.375
763.479003906,11226.7
763.743835449,11164.1
764.008666992,11123.05
764.2734375,11133.15
764.538208008,11140.45
764.802978516,11181.55
765.067687988,11151.225
765.332397461,11162.075
765.597045898,11099.225
765.861694336,11064.0
766.126342773,11052.95
766.390930176,11028.95
766.655395508,10974.725
766.920043945,10942.525
767.184509277,10933.375
767.448974609,10924.25
767.713439941,10907.65
767.977783203,10870.375
768.2421875,10893.35
768.506591797,10848.8
768.770874023,10928.85
769.03515625,10873.3
769.299499512,10878.725
769.563720703,10863.425
769.827941895,10794.625
770.092163086,10791.85
770.356323242,10783.25
770.620483398,10798.05
770.88458252,10791.225
771.148681641,10777.475
771.412719727,10765.525
771.676757812,10759.475
771.940734863,10686.725
772.204711914,10703.975
772.468688965,10678.075
772.73260498,10658.925
772.996459961,10645.075
773.260314941,9494.625
773.524169922,1207.275
773.787963867,152.65
774.051696777,120.8
774.315551758,117.7
774.579223633,121.275
774.842895508,119.25
775.106567383,121.575
775.370239258,119.525
775.633789062,124.425
775.897399902,126.675
776.160949707,119.125
776.424499512,120.775
776.687988281,123.775
776.951477051,125.975
777.214904785,120.025
777.47833252,121.45
