191.299911499,101.375
191.603515625,99.8
191.907119751,95.225
192.210693359,101.6
192.514251709,97.575
192.817810059,103.0
193.121368408,101.675
193.42489624,104.625
193.728408813,99.175
194.031936646,97.15
194.33543396,95.05
194.638916016,111.325
194.94241333,96.35
195.245880127,96.05
195.549331665,96.4
195.852767944,97.875
196.156204224,185.65
196.459625244,178.2
196.763015747,184.0
197.066436768,188.4
197.369812012,183.125
197.673187256,183.4
197.9765625,179.225
198.279922485,183.025
198.583251953,174.1
198.886581421,184.375
199.18989563,189.475
199.493209839,187.225
199.79649353,178.025
200.09979248,188.2
200.403076172,181.425
200.706314087,182.725
201.009567261,181.025
201.312820435,185.1
201.616027832,178.85
201.919235229,169.8
202.222457886,178.325
202.525634766,179.225
202.828826904,170.75
203.132003784,173.75
203.435150146,170.475
203.738296509,175.0
204.041412354,174.375
204.344558716,177.95
204.647659302,180.525
204.950759888,182.4
205.253845215,179.2
205.556930542,178.7
205.859985352,177.25
206.163024902,176.675
206.466079712,181.55
206.769104004,186.975
207.072113037,180.05
207.375137329,178.05
207.678131104,180.825
207.981109619,181.725
208.284088135,173.775
208.587036133,180.725
208.889984131,186.225
209.19291687,184.975
209.495849609,183.0
209.798751831,185.925
210.101654053,181.0
210.404556274,186.6
210.707427979,183.775
211.010269165,191.975
211.31312561,187.625
211.615982056,188.725
211.918807983,190.15
212.221618652,190.925
212.524429321,185.45
212.827224731,197.125
213.130004883,190.9
213.432769775,192.025
213.735534668,196.175
214.038269043,197.5
214.341003418,196.2
214.643737793,204.125
214.946456909,197.875
215.249145508,202.5
215.551834106,208.45
215.854507446,204.55
216.157165527,208.625
216.45980835,206.15
216.762451172,211.425
217.065078735,209.9
217.36769104,216.2
217.670303345,217.875
217.972885132,221.925
218.275466919,222.7
218.578048706,217.875
218.880599976,229.85
219.183120728,236.875
219.485656738,244.275
219.788192749,255.425
220.090682983,280.175
220.393188477,302.6
220.695663452,346.0
220.998138428,376.375
221.300582886,433.65
221.603042603,480.175
221.905487061,537.2
222.207901001,603.325
222.510299683,671.025
222.812728882,768.525
223.115097046,859.15
223.41746521,944.575
223.719848633,1032.775
224.022171021,1130.5
224.324508667,1222.05
224.626846313,1363.175
224.929168701,1434.05
225.231460571,1561.95
225.533737183,1669.975
225.836013794,1764.725
226.138290405,1879.9
226.440536499,1979.825
226.742767334,2075.35
227.044998169,2163.375
227.347213745,2288.075
227.649429321,2370.8
227.951629639,2449.8
228.253799438,2531.625
228.555953979,2593.425
228.858123779,2675.075
229.160263062,2729.7
229.462371826,2802.875
229.764511108,2880.975
230.066619873,2927.85
230.36869812,2989.25
230.670776367,3060.75
230.972854614,3124.575
231.274902344,3205.75
231.576950073,3288.65
231.878967285,3342.45
232.180999756,3439.85
232.48298645,3502.025
232.784988403,3578.4
233.086975098,3657.7
233.388946533,3728.875
233.69090271,3812.225
233.992858887,3889.25
234.294769287,3917.65
234.596694946,3978.125
234.898605347,4067.1
235.200500488,4115.075
235.502380371,4174.775
235.804244995,4199.675
236.106109619,4238.7
236.407958984,4274.75
236.709777832,4304.7
237.011581421,4348.925
237.313400269,4366.925
237.615203857,4400.175
237.916976929,4426.4
238.21875,4453.05
238.520507812,4499.825
238.822250366,4531.5
239.12399292,4537.025
239.425704956,4589.3
239.727401733,4582.9
240.02911377,4636.8
240.330780029,4610.575
240.632446289,4684.15
240.93409729,4699.275
241.23576355,4730.2
241.537384033,4746.1
241.839004517,4788.575
242.140594482,4807.05
242.442199707,4850.075
242.743774414,4851.075
243.045333862,4925.175
243.346923828,4917.075
243.648452759,4948.775
243.949966431,4965.375
244.251495361,5012.975
244.552993774,4995.125
244.854492188,4996.175
245.155975342,5018.55
245.457443237,5037.05
245.758880615,5018.225
246.060333252,4998.975
246.36177063,4975.0
246.66317749,4972.725
246.964569092,4948.325
247.265945435,4949.0
247.567337036,4942.425
247.86869812,4974.225
248.170059204,4965.75
248.471389771,4958.05
248.772705078,4978.75
249.074035645,5005.325
249.375335693,5012.4
249.676620483,5063.925
249.977890015,5087.75
250.279159546,5128.1
250.58039856,5176.7
250.881637573,5210.75
251.182876587,5264.25
251.484069824,5331.05
251.785263062,5394.925
252.086456299,5473.075
252.387619019,5489.95
252.688781738,5561.775
252.989929199,5616.4
253.291061401,5682.5
253.592178345,5744.05
253.893280029,5796.6
254.194366455,5868.0
254.49546814,5889.15
254.796524048,5912.05
255.097579956,6001.025
255.398620605,5975.125
255.699645996,6041.025
256.000640869,6025.65
256.30166626,6059.375
256.602661133,6124.425
256.903656006,6086.0
257.204589844,6089.275
257.505523682,6051.95
257.80645752,6103.15
258.107391357,6060.3
258.408294678,6050.425
258.709228516,6018.125
259.010070801,5954.65
259.310943604,5948.7
259.611846924,5880.425
259.912658691,5844.05
260.213500977,5795.075
260.514343262,5748.65
260.815124512,5656.05
261.115936279,5639.4
261.416717529,5609.4
261.717468262,5577.625
262.018218994,5530.675
262.318969727,5524.175
262.619689941,5554.275
262.920410156,5567.6
263.221130371,5593.15
263.521789551,5595.35
263.822479248,5608.95
264.123138428,5657.275
264.42376709,5664.65
264.72442627,5638.325
265.025054932,5637.325
265.325622559,5649.725
265.626251221,5647.5
265.926818848,5570.225
266.227386475,5523.35
266.527954102,5476.65
266.828460693,5485.175
267.12902832,5375.325
267.429534912,5338.45
267.730010986,5287.025
268.030517578,5210.05
268.330993652,5204.375
268.631439209,5135.325
268.931915283,5119.525
269.232299805,5069.5
269.532745361,5029.675
269.8331604,4967.225
270.133544922,4942.825
270.433929443,4954.25
270.734313965,4904.125
271.034637451,4907.65
271.334991455,4886.075
271.635314941,4901.1
271.935638428,4871.875
272.235931396,4920.675
272.536254883,4945.1
272.836486816,4997.675
273.136749268,5018.95
273.437011719,5100.15
273.737213135,5150.575
274.037445068,5227.55
274.337677002,5297.5
274.6378479,5357.275
274.938049316,5474.825
275.238220215,5535.75
275.538360596,5616.725
275.838500977,5672.275
276.138641357,5776.1
276.438751221,5829.1
276.738830566,5897.475
277.03894043,5930.525
277.338989258,6034.6
277.639038086,6095.325
277.939056396,6137.025
278.239105225,6174.475
278.539093018,6244.125
278.839141846,6265.3
279.139129639,6306.7
279.439086914,6367.8
279.739044189,6401.225
280.039001465,6456.75
280.338928223,6503.25
280.63885498,6529.15
280.938781738,6569.4
281.238647461,6584.25
281.538513184,6570.275
281.838409424,6611.05
282.138244629,6636.9
282.438079834,6638.0
282.737945557,6649.4
283.037719727,6665.025
283.337524414,6684.6
283.637298584,6694.725
283.937072754,6696.45
284.236816406,6687.8
284.536560059,6674.25
284.836303711,6692.975
285.136016846,6731.3
285.43572998,6721.325
285.735412598,6688.975
286.035064697,6680.125
286.334747314,6749.525
286.634368896,6726.5
286.933990479,6679.2
287.233642578,6640.125
287.533203125,6619.15
287.832824707,6559.2
288.132385254,6493.275
288.431945801,6352.8
288.731506348,6264.65
289.031036377,6102.375
289.330566406,6017.65
289.630065918,5977.475
289.92956543,5967.55
290.229034424,6042.925
290.528503418,6177.325
290.827941895,6322.2
291.127380371,6414.725
291.42678833,6519.975
291.726226807,6623.6
292.025604248,6656.525
292.324981689,6664.05
292.624359131,6700.875
292.923736572,6689.7
293.223052979,6693.525
293.522369385,6697.025
293.821685791,6640.8
294.12097168,6642.0
294.420257568,6607.6
294.719543457,6577.75
295.018768311,6599.4
295.318023682,6504.8
295.617248535,6454.1
295.916442871,6429.2
296.215667725,6402.925
296.514862061,6266.175
296.813995361,6084.775
297.11315918,5923.2
297.412322998,5785.75
297.711425781,5787.35
298.010559082,5897.4
298.309631348,6077.95
298.608734131,6233.05
298.907806396,6404.375
299.206848145,6530.525
299.505889893,6591.425
299.804901123,6664.025
300.103912354,6715.9
300.402954102,6792.0
300.701904297,6844.375
301.00088501,6906.325
301.299835205,6962.4
301.5987854,6966.0
301.897735596,7056.95
302.196624756,7083.55
302.495513916,7155.0
302.794403076,7167.025
303.093292236,7239.425
303.392120361,7274.625
303.690979004,7346.075
303.989837646,7382.925
304.288604736,7421.475
304.587402344,7398.55
304.886199951,7437.65
305.184967041,7495.95
305.483734131,7515.525
305.782501221,7531.275
306.081176758,7542.525
306.37991333,7595.2
306.678619385,7595.375
306.977294922,7621.325
307.275970459,7621.25
307.574645996,7638.075
307.873260498,7625.4
308.171875,7616.775
308.470489502,7626.875
308.769104004,7569.8
309.067687988,7550.4
309.366241455,7578.725
309.664794922,7547.475
309.963348389,7547.375
310.261871338,7524.85
310.560394287,7555.65
310.858856201,7565.1
311.157348633,7593.525
311.455810547,7611.425
311.754272461,7610.225
312.052703857,7665.975
312.351135254,7691.275
312.649536133,7690.525
312.947937012,7666.775
313.246307373,7696.6
313.544647217,7690.7
313.843017578,7665.0
314.141387939,7657.1
314.439697266,7701.875
314.738006592,7580.625
315.036315918,7551.05
315.334564209,7476.75
315.6328125,7423.275
315.931091309,7379.0
316.229309082,7288.775
316.527526855,7163.775
316.825744629,7133.775
317.123901367,7039.475
317.422088623,7024.525
317.720245361,7001.125
318.0184021,7041.575
318.316497803,7059.125
318.614654541,7095.8
318.912750244,7170.4
319.21081543,7165.8
319.50894165,7212.6
319.806945801,7180.575
320.104980469,7213.475
320.403045654,7184.975
320.701049805,7152.75
320.999023438,7130.425
321.297027588,7122.475
321.595001221,7083.65
321.892913818,7059.075
322.190887451,7001.8
322.488830566,6961.95
322.786712646,6921.725
323.084625244,6853.6
323.382507324,6833.025
323.680358887,6766.45
323.978210449,6685.0
324.276062012,6652.85
324.573852539,6600.4
324.871643066,6566.65
325.169464111,6516.975
325.467224121,6447.975
325.764984131,6394.825
326.062744141,6357.6
326.360473633,6277.375
326.658203125,6239.675
326.955871582,6161.225
327.253570557,6115.775
327.551239014,6074.75
327.848907471,6006.1
328.146514893,5961.5
328.444152832,5888.8
328.741790771,5853.375
329.039367676,5822.2
329.336914062,5753.3
329.634521484,5717.1
329.932067871,5672.625
330.229553223,5600.575
330.527160645,5570.5
330.824615479,5499.275
331.12210083,5460.55
331.419586182,5366.95
331.717041016,5316.275
332.014465332,5251.575
332.311920166,5228.375
332.609313965,5168.975
332.906707764,5159.3
333.204101562,5168.5
333.501495361,5170.675
333.798828125,5195.05
334.096160889,5232.525
334.39352417,5287.925
334.690795898,5334.925
334.988098145,5360.4
335.285400391,5409.825
335.582641602,5433.8
335.879882812,5441.6
336.177124023,5455.425
336.474334717,5522.075
336.77154541,5524.575
337.068725586,5547.2
337.365905762,5535.85
337.66305542,5561.775
337.960205078,5574.4
338.257324219,5596.3
338.554443359,5593.125
338.8515625,5629.875
339.148590088,5595.85
339.445648193,5637.075
339.742736816,5598.425
340.039764404,5592.6
340.336761475,5554.7
340.63381958,5515.525
340.930755615,5483.75
341.227722168,5405.025
341.524688721,5351.175
341.821624756,5304.85
342.118560791,5336.325
342.415496826,5392.5
342.712402344,5505.7
343.009246826,5619.125
343.306121826,5761.275
343.602966309,5783.075
343.899810791,5880.125
344.196624756,5947.85
344.493438721,5946.5
344.79019165,6014.3
345.086975098,6057.25
345.383758545,6096.675
345.680480957,6075.45
345.977203369,6074.75
346.273956299,6134.25
346.570617676,6118.7
346.86730957,6130.725
347.163970947,6114.9
347.460601807,6139.35
347.757232666,6147.375
348.053894043,6158.9
348.350463867,6082.3
348.647064209,6072.6
348.943634033,6048.375
349.24017334,6076.9
349.536712646,6004.5
349.833251953,6026.975
350.129760742,6003.675
350.426208496,6002.75
350.722747803,5956.425
351.019195557,5961.625
351.315612793,5923.025
351.612060547,5892.25
351.908508301,5857.575
352.204864502,5812.55
352.501281738,5759.75
352.797637939,5719.975
353.093963623,5636.4
353.390319824,5606.875
353.686645508,5519.35
353.982940674,5470.8
354.27923584,5409.95
354.575531006,5391.6
354.871765137,5367.5
355.167999268,5345.375
355.464233398,5354.975
355.760437012,5370.25
356.056640625,5339.6
356.352813721,5374.1
356.648956299,5353.525
356.945129395,5398.8
357.241271973,5375.65
357.537384033,5404.75
357.833496094,5349.325
358.129577637,5329.875
358.425628662,5324.6
358.721679688,5282.425
359.017730713,5294.8
359.313720703,5240.15
359.609710693,5218.2
359.905761719,5155.225
360.201721191,5134.875
360.497650146,5064.75
360.793609619,5063.725
361.089538574,4989.15
361.385437012,4922.3
361.681365967,4878.325
361.977233887,4853.825
362.273071289,4791.95
362.568908691,4713.825
362.864746094,4610.875
363.160552979,4491.225
363.456359863,4350.9
363.752166748,4222.45
364.047912598,4151.075
364.343658447,4126.775
364.639434814,4141.875
364.935119629,4163.8
365.230834961,4244.55
365.526550293,4262.375
365.822174072,4282.0
366.117858887,4299.325
366.413482666,4324.125
366.709075928,4335.525
367.004730225,4265.5
367.300292969,4275.0
367.595855713,4322.275
367.891448975,4199.0
368.186981201,4131.6
368.482513428,4082.325
368.778015137,4081.3
369.073547363,4034.0
369.36895752,4055.65
369.664428711,3963.125
369.95993042,3882.925
370.255310059,3831.375
370.550720215,3801.1
370.846160889,3768.525
371.14151001,3743.475
371.436859131,3719.275
371.73223877,3713.425
372.027557373,3688.35
372.322875977,3621.45
372.618164062,3590.525
372.913482666,3554.35
373.208709717,3546.175
373.503967285,3505.675
373.799194336,3457.725
374.094421387,3472.2
374.389648438,3464.5
374.684844971,3438.35
374.979980469,3479.85
375.275146484,3480.1
375.570281982,3504.2
375.865386963,3501.175
376.160522461,3466.125
376.455596924,3476.625
376.750640869,3553.025
377.045715332,3558.225
377.340759277,3584.45
377.635772705,3643.5
377.93081665,3685.475
378.225769043,3741.5
378.520751953,3781.175
378.815734863,3755.075
379.110656738,3891.3
379.405548096,4040.7
379.700500488,3920.225
379.995391846,3724.35
380.290252686,3755.825
380.585083008,3865.325
380.879974365,3901.625
381.17477417,3814.475
381.469543457,3787.1
381.764404297,3747.05
382.059143066,3790.85
382.353912354,3854.175
382.648651123,3940.975
382.943389893,3915.225
383.238067627,3759.35
383.532775879,3767.1
383.827484131,3722.725
384.12210083,3725.775
384.416778564,3663.15
384.711425781,3578.6
385.006011963,3603.025
385.300628662,3604.15
385.595184326,3659.1
385.88973999,3759.475
386.184295654,3862.95
386.478820801,3922.7
386.77331543,3995.825
387.067840576,4085.85
387.362335205,4200.325
387.656768799,4233.1
387.951202393,4256.225
388.245635986,4328.375
388.540039062,4396.825
388.834472656,4464.825
389.128875732,4359.825
389.423187256,4165.175
389.717559814,4124.125
390.011871338,4220.275
390.306182861,4231.65
390.600463867,4255.375
390.894775391,4311.45
391.189025879,4362.175
391.48324585,4353.1
391.777526855,4372.25
392.071685791,4571.55
392.365875244,4652.6
392.660064697,4700.7
392.95425415,5027.25
393.248382568,5008.45
393.542510986,4587.35
393.836608887,4426.975
394.130706787,4419.825
394.424804688,4375.275
394.71887207,4505.65
395.012878418,4479.625
395.306915283,4355.9
395.600921631,4308.85
395.894927979,4283.25
396.188903809,4323.75
396.482879639,4329.2
396.776794434,4531.475
397.070739746,4488.75
397.364654541,4486.475
397.658538818,4853.925
397.952423096,4875.325
398.246307373,4827.5
398.540100098,5316.875
398.833953857,5204.95
399.127746582,4764.65
399.421508789,4785.7
399.715301514,4729.55
400.009063721,4638.95
400.30279541,4504.975
400.596496582,4434.325
400.890258789,4589.075
401.183929443,4653.025
401.47756958,4565.1
401.771240234,4346.975
402.064880371,4353.0
402.35848999,4404.225
402.652130127,4303.35
402.945678711,4379.55
403.239257812,4326.475
403.532775879,4285.35
403.82635498,4304.175
404.119842529,4244.5
404.413360596,4240.225
404.706848145,4288.075
405.000274658,4216.05
405.293762207,4305.175
405.587188721,4337.9
405.880584717,4203.425
406.17401123,4036.45
406.467407227,3863.6
406.760742188,3876.025
407.054107666,3899.075
407.347442627,3835.075
407.640716553,3827.9
407.934051514,3887.225
408.227325439,3934.7
408.520568848,4116.775
408.813842773,4221.425
409.107086182,4024.825
409.400238037,3985.3
409.693450928,3929.45
409.986633301,4021.05
410.279754639,3950.875
410.572875977,3692.825
410.86605835,3623.625
411.159118652,3645.65
411.452209473,3645.4
411.745330811,3529.7
412.038360596,3455.575
412.331390381,3478.975
412.624420166,3535.075
412.917388916,3439.65
413.210388184,3283.7
413.503387451,3259.425
413.796295166,3170.075
414.089233398,3011.425
414.382141113,2933.2
414.675048828,2932.675
414.967926025,2959.725
415.260803223,2901.5
415.55368042,2951.975
415.846466064,2897.025
416.139282227,2968.475
416.432098389,3074.225
416.724853516,3071.825
417.017608643,3022.225
417.31036377,3025.825
417.603088379,3142.425
417.895782471,3121.975
418.188476562,3097.025
418.481140137,3158.475
418.773803711,3202.525
419.066436768,3184.475
419.359039307,3251.125
419.651641846,3257.125
419.944244385,3230.25
420.236816406,3194.825
420.529327393,3410.325
420.821899414,3469.825
421.114379883,3399.45
421.406860352,3646.15
421.699371338,3821.1
421.991821289,3796.55
422.284240723,3599.85
422.576721191,3467.675
422.869110107,3376.75
423.161468506,3338.4
423.453857422,3353.95
423.74621582,3256.65
424.038543701,3134.6
424.330871582,3109.7
424.623168945,3054.4
424.915435791,3169.05
425.207702637,3131.0
425.499969482,3099.45
425.792205811,3039.65
426.084411621,2816.55
426.376617432,2884.075
426.668762207,2945.0
426.9609375,2841.0
427.253082275,2949.025
427.545196533,3296.175
427.837310791,3054.025
428.129425049,2803.875
428.421447754,2987.7
428.713531494,2989.85
429.005554199,2988.125
429.297576904,2994.9
429.589599609,3366.1
429.881561279,3657.975
430.173522949,3468.05
430.465484619,3412.25
430.757415771,3509.3
431.049316406,3292.3
431.341186523,3077.55
431.633117676,2995.6
431.924957275,2733.5
432.21673584,2618.4
432.508636475,2750.0
432.800415039,2771.725
433.092163086,2671.35
433.383972168,2650.9
433.675689697,3284.9
433.967437744,3727.175
434.259155273,2858.525
434.550872803,2613.05
434.842498779,2652.675
435.134185791,2760.125
435.425842285,2777.45
435.717437744,2699.0
436.009063721,2516.4
436.30065918,2660.25
436.592224121,2955.45
436.883758545,2786.95
437.175323486,2553.125
437.466827393,2533.55
437.758331299,2548.8
438.049804688,2562.75
438.341247559,2619.45
438.63269043,2691.85
438.924163818,2684.75
439.215515137,2645.725
439.50692749,2553.1
439.798309326,2567.8
440.089660645,2574.475
440.380981445,2485.325
440.672332764,2488.175
440.963623047,2723.75
441.254882812,3128.0
441.546173096,3287.2
441.837402344,3061.9
442.128631592,2894.925
442.41986084,2899.725
442.711029053,2779.55
443.002197266,2830.4
443.293365479,2995.45
443.584503174,3125.175
443.875610352,3100.3
444.166717529,2853.65
444.457794189,2913.125
444.748840332,2891.5
445.039916992,2845.4
445.330932617,2928.1
445.621948242,2774.925
445.912963867,2616.15
446.203918457,2829.25
446.494812012,3034.8
446.785827637,2837.875
447.076721191,2686.275
447.367584229,2678.875
447.658447266,2642.225
447.949371338,2707.175
448.24017334,2583.9
448.530975342,2517.225
448.821838379,2678.725
449.112579346,2739.1
449.40335083,2675.125
449.694152832,2709.725
449.984863281,2708.975
450.27557373,2653.0
450.56628418,2699.6
450.856933594,2725.4
451.147583008,2584.15
451.438262939,2484.7
451.728881836,2669.075
452.019470215,2755.725
452.310089111,2562.85
452.600646973,2593.05
452.891174316,2641.575
453.181732178,2504.225
453.472229004,2373.625
453.762695312,2473.625
454.053222656,2508.35
454.343658447,2388.4
454.634063721,2320.175
454.924530029,2479.9
455.214935303,2606.0
455.505279541,2668.75
455.795715332,2553.45
456.086029053,2363.05
456.376312256,2345.925
456.666687012,2387.475
456.956939697,2474.975
457.247192383,2476.525
457.537445068,2542.1
457.827728271,2699.65
458.117919922,2644.825
458.408081055,2563.575
458.698303223,2734.7
458.988433838,2665.775
459.278564453,2519.45
459.568725586,2773.175
459.858825684,2868.775
460.148864746,2570.25
460.438995361,2560.525
460.729034424,2599.975
461.019042969,2608.1
461.309082031,2784.35
461.599060059,2679.6
461.889007568,2270.275
462.179016113,2118.55
462.468933105,2328.0
462.75881958,2433.825
463.048736572,2206.025
463.338592529,2432.925
463.628448486,2755.75
463.918365479,2497.125
464.2081604,2651.175
464.497924805,2602.9
464.787780762,2714.125
465.077514648,2996.15
465.367218018,2648.45
465.657012939,2840.125
465.946685791,3194.425
466.236358643,2843.5
466.526092529,2364.0
466.815734863,2364.4
467.105316162,2284.55
467.394927979,2313.35
467.684570312,2186.425
467.974121094,2282.625
468.263671875,2384.775
468.553222656,2192.1
468.842773438,2079.65
469.132232666,1996.0
469.42175293,2011.375
469.711212158,1979.275
470.000640869,1886.375
470.290100098,1933.75
470.579498291,1963.75
470.868835449,1964.75
471.158294678,1929.45
471.447601318,1912.525
471.736907959,1965.5
472.026275635,2024.75
472.315551758,2017.975
472.604797363,2019.65
472.894104004,2122.075
473.183319092,2225.425
473.47253418,2215.25
473.761779785,2200.2
474.05090332,2150.825
474.340087891,2101.575
474.629241943,2046.575
474.918365479,2199.275
475.207427979,2438.575
475.496551514,2444.425
475.785614014,2230.925
476.074645996,2039.225
476.363708496,2135.875
476.652679443,2257.625
476.941650391,2104.575
477.230682373,1959.875
477.519622803,1952.75
477.808502197,2082.825
478.097412109,2324.8
478.386352539,2292.4
478.675201416,2056.2
478.964050293,1952.75
479.25289917,2120.325
479.541717529,2162.95
479.830474854,2043.65
480.11932373,2347.375
480.408050537,2492.5
480.696777344,2162.075
480.985534668,2040.575
481.274200439,2124.3
481.562866211,2346.6
481.851593018,2373.8
482.140197754,2302.25
482.428833008,2171.55
482.717468262,1985.45
483.006011963,2005.25
483.294586182,2116.3
483.5831604,2155.8
483.871673584,2026.375
484.16015625,2160.1
484.448699951,2374.925
484.7371521,2406.0
485.02557373,2401.275
485.314025879,2168.4
485.602416992,3381.975
485.890777588,12001.65
486.179199219,10687.3
486.467559814,2838.4
486.755859375,2078.75
487.044219971,2431.525
487.332519531,2591.9
487.620758057,2218.55
487.908966064,1975.725
488.197265625,1800.225
488.485473633,1723.9
488.773651123,1821.1
489.061859131,1819.55
489.350006104,1762.05
489.638122559,1731.9
489.926300049,1749.7
490.214355469,1698.075
490.502441406,1654.0
490.790527344,1589.625
491.078552246,1749.975
491.366546631,1756.975
491.654602051,1542.975
491.942565918,1621.125
492.230499268,1656.425
492.518493652,1615.1
492.806396484,1653.825
493.094268799,1567.6
493.382202148,1616.775
493.670074463,1706.25
493.957885742,1582.75
494.245727539,1561.7
494.533508301,1705.925
494.821289062,1616.05
495.109100342,1481.575
495.396850586,1422.125
495.684539795,1397.85
495.972290039,1572.35
496.25994873,1887.25
496.547607422,1886.625
496.835296631,1741.55
497.122894287,1444.375
497.410522461,1370.3
497.6980896,1378.875
497.985687256,1354.05
498.273223877,1430.65
498.560760498,1495.75
498.848266602,1516.725
499.135772705,1494.75
499.423217773,1525.375
499.710693359,1617.325
499.998138428,1564.175
500.285522461,1417.45
500.572937012,1345.825
500.860290527,1396.175
501.147644043,1492.05
501.434997559,1683.425
501.722290039,1565.35
502.00958252,1369.5
502.296875,1594.025
502.584106445,1582.525
502.871337891,1429.025
503.158599854,1488.8
503.445770264,1549.225
503.732910156,1535.675
504.020141602,1375.825
504.307220459,1352.675
504.594329834,1387.8
504.881469727,1323.875
505.168518066,1386.825
505.455535889,1454.0
505.742614746,1342.925
506.029632568,1281.85
506.316589355,1450.075
506.603637695,1525.775
506.890563965,1350.9
507.177459717,1199.15
507.464385986,1132.6
507.751312256,1335.45
508.038146973,1409.275
508.325012207,1282.95
508.611877441,1327.85
508.898681641,1339.675
509.185424805,1212.025
509.472259521,1166.525
509.759002686,1243.85
510.045715332,1269.05
510.332458496,1227.325
510.619140625,1262.35
510.905761719,1203.475
511.192504883,1188.05
511.479095459,1224.5
511.765686035,1185.9
512.052307129,1119.2
512.338928223,1064.525
512.625427246,1113.325
512.91204834,1160.15
513.198486328,1141.0
513.484985352,1114.025
513.77142334,1045.225
514.057922363,1105.55
514.344299316,1099.925
514.63079834,1057.3
514.917175293,1048.7
515.203552246,968.95
515.489868164,941.775
515.776245117,1051.325
516.0625,1083.875
516.348815918,1003.325
516.635070801,1033.7
516.921325684,1088.25
517.207580566,1024.125
517.493774414,950.675
517.779968262,954.45
518.066101074,989.675
518.352294922,948.55
518.638366699,956.775
518.924499512,1027.025
519.210632324,1094.8
519.496643066,1050.375
519.782714844,974.4
520.068786621,948.875
520.354736328,898.55
520.640686035,872.0
520.926757812,918.175
521.212646484,980.5
521.498535156,985.775
521.784484863,943.575
522.0703125,878.975
522.356262207,899.925
522.642089844,964.9
522.927856445,959.925
523.213684082,956.875
523.499511719,939.9
523.78527832,976.025
524.070983887,1028.5
524.356750488,1009.3
524.64239502,970.825
524.928039551,975.975
525.213806152,975.75
525.499389648,975.05
525.784973145,986.25
526.070617676,1028.325
526.356140137,1008.225
526.641723633,1006.475
526.927307129,1063.65
527.212768555,1068.65
527.498291016,1041.55
527.783752441,1053.225
528.069213867,1028.95
528.354675293,1049.525
528.640014648,1192.8
528.925476074,1254.475
529.21081543,1188.05
529.496154785,1168.2
529.781555176,1138.45
530.066833496,1154.85
530.352050781,1169.775
530.637390137,1168.75
530.922607422,1154.55
531.207824707,1155.175
531.493041992,1142.85
531.778198242,1207.075
532.063354492,1191.725
532.348571777,1134.375
532.633666992,1153.075
532.918762207,1216.375
533.203857422,1289.725
533.488891602,1318.825
533.773925781,1271.125
534.059020996,1255.125
534.343933105,1280.9
534.628967285,1258.475
534.91394043,1268.175
535.198852539,1290.325
535.483703613,1257.775
535.768676758,1209.7
536.053527832,1216.625
536.338317871,1181.85
536.62322998,1115.625
536.90802002,1103.9
537.192810059,1122.45
537.477539062,1198.35
537.762329102,1225.85
538.047058105,1263.775
538.331726074,1291.4
538.616455078,1276.075
538.901123047,1248.15
539.18572998,1302.8
539.470397949,1304.7
539.755004883,1296.2
540.039550781,1261.15
540.32409668,1225.5
540.608703613,1264.675
540.893188477,1335.3
541.17767334,1369.8
541.462158203,1371.475
541.746643066,1319.7
542.031066895,1355.725
542.315429688,1392.2
542.59979248,1387.475
542.884216309,1373.875
543.168579102,1378.125
543.452941895,1379.85
543.737243652,1425.725
544.021484375,1460.75
544.305725098,1456.675
544.590026855,1437.4
544.874267578,1448.425
545.158447266,1515.875
545.442626953,1430.75
545.726806641,1338.575
546.010925293,1379.2
546.29510498,1399.05
546.579162598,1406.3
546.863220215,1426.025
547.147277832,1486.85
547.431335449,1551.65
547.715332031,1608.4
547.999328613,1721.0
548.283325195,1728.475
548.567260742,1598.925
548.851135254,1562.775
549.135070801,1544.35
549.419006348,1459.075
549.702819824,1548.525
549.986755371,1622.9
550.270507812,1582.525
550.554321289,1623.325
550.83807373,1640.475
551.121826172,1592.625
551.405517578,1604.85
551.689331055,1712.75
551.973022461,1920.15
552.256652832,1975.175
552.540344238,1892.35
552.823974609,1861.725
553.107543945,1847.925
553.391174316,1905.35
553.674743652,1957.35
553.958251953,1967.425
554.241821289,1972.1
554.525268555,1906.575
554.808776855,1918.775
555.092285156,2083.525
555.375671387,2154.625
555.659057617,2153.4
555.942504883,2192.35
556.225891113,2215.1
556.509216309,2174.55
556.792541504,2105.8
557.075866699,2171.475
557.359130859,2190.75
557.64239502,2193.825
557.92565918,2271.825
558.208862305,2263.725
558.49206543,2190.975
558.77532959,2217.75
559.058410645,2248.975
559.341552734,2239.4
559.624694824,2299.15
559.907775879,2342.125
560.190856934,2467.9
560.473937988,2468.25
560.756896973,2492.225
561.039978027,2537.25
561.322937012,2494.625
561.605895996,2473.75
561.88885498,2461.275
562.171813965,2447.175
562.454650879,2452.525
562.737548828,2492.95
563.020446777,2537.95
563.303283691,2550.725
563.58605957,2581.6
563.868896484,2610.125
564.151672363,2638.95
564.434387207,2686.725
564.717163086,2652.25
564.99987793,2691.775
565.282531738,2747.55
565.565185547,2703.625
565.847839355,2703.25
566.130432129,2806.8
566.413085938,2777.65
566.695678711,2790.25
566.978149414,2910.5
567.260681152,3050.25
567.543273926,3103.325
567.825744629,3014.275
568.108154297,3045.725
568.390686035,3173.55
568.673095703,3268.475
568.955505371,3309.375
569.237854004,3355.875
569.520202637,3597.05
569.802490234,3787.05
570.084838867,3760.875
570.367126465,3608.375
570.649414062,3626.975
570.93170166,3944.925
571.213928223,4018.675
571.496154785,3795.525
571.778381348,3986.225
572.06048584,4229.825
572.342590332,3817.45
572.624755859,3508.825
572.906860352,3552.55
573.188903809,4183.3
573.470947266,4397.85
573.752990723,4195.675
574.03503418,4264.875
574.317016602,4626.725
574.598937988,4442.025
574.88092041,4343.7
575.162841797,4513.8
575.444763184,4156.525
575.726623535,3907.825
576.008483887,3958.025
576.290344238,4328.05
576.572143555,4506.975
576.853881836,4567.375
577.135681152,4469.25
577.417419434,4532.8
577.699157715,5324.3
577.980895996,5495.5
578.262573242,4883.35
578.544128418,4440.525
578.825866699,4384.4
579.107421875,4123.675
579.388977051,4260.9
579.670593262,4631.925
579.952148438,4481.425
580.233642578,4580.475
580.515197754,4679.925
580.796691895,4393.3
581.078125,4584.625
581.359619141,5943.325
581.640991211,6035.95
581.922363281,5181.775
582.203796387,5244.975
582.485107422,4927.225
582.766418457,4571.45
583.047790527,4422.9
583.329040527,4329.8
583.610290527,4201.875
583.891540527,4300.925
584.172790527,4603.4
584.453918457,4591.45
584.735107422,4648.475
585.016235352,5087.4
585.297363281,5045.875
585.578552246,4860.675
585.859619141,4801.775
586.140625,4588.7
586.421630859,4484.875
586.702697754,4525.7
586.983642578,4721.325
587.264648438,4891.7
587.545654297,4818.1
587.826477051,4769.2
588.107421875,4601.7
588.388305664,4633.85
588.669189453,4744.575
588.950012207,4578.375
589.230834961,4501.175
589.511657715,4580.275
589.792358398,4671.625
590.073120117,4693.375
590.353881836,4646.65
590.63458252,4680.225
590.915283203,4639.75
591.195922852,4623.75
591.4765625,4689.825
591.757202148,4706.85
592.037780762,4686.975
592.31829834,4696.825
592.598937988,4898.15
592.879394531,5056.025
593.159912109,4992.275
593.440429688,4926.675
593.720825195,4883.55
594.001281738,4882.975
594.281677246,4805.1
594.562072754,4797.15
594.842407227,4904.525
595.122802734,4940.725
595.403137207,4922.025
595.683410645,4911.7
595.963623047,4910.6
596.243896484,4866.55
596.524169922,4853.725
596.804382324,4873.55
597.084533691,4917.475
597.364746094,4927.15
597.644836426,4950.75
597.924987793,4955.65
598.205078125,4939.675
598.485107422,4951.0
598.765197754,5051.2
599.045227051,5116.65
599.325195312,5015.5
599.605224609,4980.775
599.885192871,5055.575
600.165100098,5068.1
600.445007324,5036.075
600.724914551,5012.7
601.004760742,5039.55
601.284667969,5068.825
601.56451416,5052.425
601.844238281,5035.775
602.124084473,5039.875
602.403808594,5046.375
602.683532715,5099.275
602.963256836,5064.35
603.242919922,5110.025
603.522583008,5167.925
603.802246094,5147.35
604.081848145,5087.875
604.36138916,5081.225
604.641052246,5123.3
604.920532227,5087.55
605.200073242,5126.175
605.479614258,5145.05
605.759094238,5175.675
606.038574219,5178.325
606.317932129,5129.05
606.597412109,5119.85
606.87677002,5143.075
607.15612793,5193.65
607.435546875,5192.35
607.714782715,5180.425
607.99407959,5150.475
608.273376465,5150.0
608.552612305,5182.7
608.831848145,5183.25
609.111083984,5171.375
609.390258789,5142.1
609.669433594,5164.8
609.948608398,5245.85
610.227722168,5208.9
610.506713867,5157.1
610.785888672,5170.7
611.064880371,5156.175
611.34387207,5178.45
611.622924805,5197.35
611.901916504,5190.625
612.180847168,5147.7
612.459777832,5151.85
612.738647461,5132.525
613.01751709,5122.95
613.296447754,5088.2
613.575317383,5047.95
613.854064941,5000.6
614.132873535,4915.625
614.411621094,4888.75
614.690368652,4859.075
614.969177246,4799.875
615.247802734,4729.475
615.526489258,4714.65
615.805175781,4615.75
616.08380127,4502.625
616.362365723,4430.5
616.640991211,4381.5
616.919555664,4335.4
617.198059082,4419.025
617.4765625,4714.15
617.755126953,4816.85
618.033569336,4854.45
618.311950684,4855.9
618.590454102,4848.05
618.868774414,4834.9
619.147155762,4850.25
619.425598145,4839.5
619.703857422,4851.575
619.982177734,4851.3
620.260498047,4849.475
620.538757324,4833.0
620.816955566,4813.725
621.095214844,4778.55
621.373413086,4804.775
621.651550293,4860.825
621.929748535,4888.625
622.207824707,4858.0
622.485900879,4878.7
622.764038086,4886.35
623.042053223,4901.325
623.320007324,4915.325
623.598083496,4932.95
623.876037598,4918.35
624.153991699,4932.125
624.432006836,4961.6
624.709838867,4971.55
624.987731934,4949.75
625.265563965,4949.5
625.543395996,4958.8
625.821228027,5031.225
626.098999023,5016.35
626.376831055,5065.925
626.654541016,5079.275
626.932250977,5115.375
627.209960938,5171.175
627.487670898,5181.325
627.765319824,5183.6
628.04296875,5192.225
628.320495605,5204.525
628.598083496,5204.325
628.875671387,5261.175
629.153259277,5278.675
629.430725098,5310.075
629.708251953,5310.55
629.985656738,5352.625
630.263122559,5363.5
630.540588379,5404.7
630.817932129,5438.85
631.095275879,5449.175
631.372680664,5500.65
631.649963379,5525.15
631.927246094,5577.225
632.204589844,5589.35
632.481811523,5646.525
632.759033203,5733.55
633.036254883,5768.925
633.313415527,5853.05
633.590576172,5884.7
633.867736816,5970.175
634.144836426,6072.75
634.421875,6096.25
634.698913574,6149.225
634.976013184,6189.45
635.252990723,6269.8
635.529968262,6293.5
635.807006836,6381.775
636.08392334,6350.85
636.360839844,6265.925
636.637756348,6214.05
636.914611816,6138.125
637.191467285,6121.875
637.468261719,6197.2
637.745056152,6175.0
638.021789551,6216.15
638.298583984,6194.85
638.575317383,6235.775
638.851989746,6262.575
639.12878418,6263.075
639.405395508,6229.075
639.682006836,6290.35
639.958618164,6287.2
640.235229492,6259.0
640.511779785,6301.75
640.788330078,6293.9
641.064880371,6282.65
641.341308594,6284.55
641.617797852,6293.875
641.894226074,6264.825
642.170654297,6292.15
642.44708252,6303.025
642.723388672,6299.175
642.999755859,6292.825
643.276123047,6294.6
643.552429199,6274.0
643.828674316,6282.275
644.104919434,6247.175
644.381164551,6265.05
644.657348633,6269.925
644.933532715,6231.025
645.209716797,6244.475
645.485839844,6236.95
645.761901855,6233.325
646.038024902,6223.525
646.314086914,6278.325
646.590087891,6247.35
646.866149902,6265.5
647.142150879,6201.25
647.41809082,6210.95
647.694030762,6201.575
647.969970703,6199.025
648.245788574,6209.75
648.521728516,6215.9
648.797546387,6220.25
649.073303223,6231.325
649.349182129,6210.425
649.624938965,6181.325
649.900634766,6187.1
650.176391602,6182.975
650.452087402,6193.3
650.727783203,6190.95
651.003479004,6210.9
651.279052734,6182.325
651.554626465,6148.225
651.83026123,6165.55
652.105773926,6191.45
652.381286621,6142.325
652.656860352,6155.625
652.932312012,6132.275
653.207763672,6166.325
653.483215332,6220.85
653.758605957,6198.425
654.033935547,6173.475
654.309326172,6177.4
654.584716797,6203.575
654.859985352,6187.575
655.135253906,6231.225
655.410583496,6235.025
655.685791016,7206.975
655.9609375,11199.575
656.236206055,10954.55
656.511291504,7228.275
656.786437988,6389.05
657.061645508,6265.825
657.336669922,6239.775
657.611694336,6269.725
657.886779785,6290.0
658.161804199,6314.475
658.436828613,6287.9
658.711791992,6299.675
658.986755371,6323.025
659.261657715,6317.65
659.536621094,6319.325
659.811401367,6336.15
660.086303711,6342.6
660.36114502,6335.6
660.635864258,6343.4
660.910644531,6386.3
661.185424805,6364.975
661.460205078,6391.1
661.734863281,6398.55
662.009521484,6365.85
662.284179688,6399.525
662.558776855,6402.3
662.833435059,6438.725
663.108032227,6443.525
663.382568359,6438.2
663.657043457,6486.925
663.93157959,6509.475
664.206054688,6464.95
664.48046875,6547.275
664.755004883,6536.475
665.02935791,6529.4
665.303710938,6567.65
665.578125,6575.1
665.852416992,6581.275
666.126708984,6578.95
666.401062012,6588.975
666.675292969,6599.2
666.949462891,6604.5
667.223754883,6586.825
667.497924805,6650.25
667.772094727,6650.75
668.046264648,6611.325
668.3203125,6682.575
668.594421387,6694.5
668.868469238,6713.175
669.14251709,6729.85
669.416503906,6718.9
669.690551758,6735.9
669.964477539,6734.3
670.23840332,6741.6
670.512329102,6743.95
670.786254883,6718.6
671.060058594,6795.6
671.333984375,6797.025
671.607788086,6821.825
671.881530762,6794.325
672.155334473,6817.15
672.429077148,6838.875
672.702758789,6860.725
672.97644043,6843.5
673.25012207,6834.1
673.523742676,6835.7
673.797302246,6823.65
674.070922852,6895.8
674.344482422,6887.125
674.618041992,6892.15
674.891601562,6900.2
675.165100098,6897.425
675.438476562,6900.6
675.711975098,6888.375
675.985412598,6895.6
676.258789062,6894.45
676.532165527,6918.7
676.805480957,6919.05
677.078796387,6908.1
677.352111816,6954.625
677.625366211,6921.425
677.898620605,6918.175
678.171875,6965.575
678.445007324,6945.0
678.718200684,6975.75
678.991394043,6991.55
679.264404297,6975.125
679.537536621,7007.125
679.81060791,6996.6
680.083679199,7008.3
680.356689453,6972.825
680.629699707,7007.05
680.902648926,6970.75
681.175598145,7008.2
681.448547363,7040.6
681.721435547,7009.575
681.99420166,7004.275
682.267150879,6961.55
682.539916992,7045.075
682.812744141,7003.65
683.085510254,6979.25
683.358215332,6996.675
683.63092041,7008.075
683.903625488,7010.475
684.176330566,6996.5
684.448913574,6958.575
684.721557617,6956.975
684.99420166,7013.925
685.266662598,7001.525
685.539245605,7013.525
685.811767578,7035.35
686.084289551,7052.275
686.356689453,7059.85
686.629150391,7086.9
686.901550293,7106.1
687.17401123,7092.075
687.446350098,7092.5
687.718688965,7094.725
687.990966797,7133.625
688.263305664,7151.7
688.535522461,7106.5
688.807739258,7118.625
689.079956055,7144.45
689.352172852,7177.3
689.624328613,7143.025
689.896484375,7166.875
690.168518066,7171.525
690.440612793,7184.55
690.71270752,7192.8
690.984741211,7179.925
691.256713867,7198.25
691.528747559,7175.35
691.800720215,7203.825
692.072631836,7204.6
692.344543457,7227.425
692.616394043,7224.2
692.888244629,7244.675
693.160095215,7273.075
693.431945801,7247.75
693.703674316,7225.525
693.975463867,7201.1
694.247131348,7254.7
694.518859863,7233.725
694.790588379,7273.65
695.062255859,7263.15
695.33380127,7246.8
695.60546875,7229.0
695.87701416,7212.775
696.148498535,7236.225
696.42010498,7278.725
696.691589355,7277.325
696.96307373,7295.3
697.234558105,7328.6
697.50592041,7308.55
697.777282715,7327.4
698.048706055,7322.45
698.320068359,7339.425
698.591308594,7294.325
698.862670898,7289.925
699.133972168,7320.9
699.405151367,7302.25
699.676391602,7334.75
699.947570801,7298.825
700.21875,7313.85
700.489868164,7333.25
700.761047363,7315.5
701.032104492,7339.95
701.303100586,7293.975
701.57421875,7325.55
701.845214844,7310.775
702.116149902,7324.175
702.387207031,7318.175
702.65814209,7332.95
702.928955078,7322.325
703.199951172,7277.225
703.47076416,7257.075
703.741577148,7271.2
704.012451172,7318.95
704.28314209,7293.475
704.553955078,7284.525
704.824707031,7318.675
705.095397949,7305.525
705.366027832,7321.975
705.63671875,7324.825
705.907348633,7263.525
706.17791748,7286.4
706.448486328,7275.75
706.719055176,7293.575
706.989562988,7278.2
707.260131836,7294.475
707.530517578,7295.65
707.800964355,7300.125
708.071411133,7223.5
708.341796875,7248.175
708.612182617,7213.725
708.882446289,7180.95
709.152893066,7218.4
709.423156738,7247.725
709.693359375,7193.125
709.963623047,7201.475
710.233825684,7208.7
710.503967285,7166.075
710.774169922,7206.125
711.044311523,7163.9
711.31439209,7144.65
711.584533691,7179.75
711.854553223,7150.25
712.124572754,7155.475
712.39465332,7093.325
712.664611816,7120.2
712.934509277,7127.0
713.204467773,7122.125
713.474365234,7111.525
713.74420166,7094.125
714.014099121,7095.875
714.283874512,7078.275
714.553710938,7102.95
714.823486328,7089.65
715.093200684,7045.425
715.362915039,7076.9
715.632629395,7034.725
715.902282715,6991.575
716.171875,6992.725
716.441589355,6995.1
716.711181641,6933.1
716.980712891,6971.9
717.250244141,6943.075
717.519775391,6932.675
717.78918457,6929.35
718.058654785,6958.275
718.328125,6970.275
718.597473145,6923.7
718.866882324,6906.125
719.136230469,6898.45
719.405578613,6898.575
719.674865723,6912.925
719.944152832,6862.25
720.213439941,6856.1
720.48260498,6854.725
720.75177002,6852.225
721.020996094,6850.15
721.290100098,6832.35
721.559204102,6826.375
721.828308105,6831.3
722.097351074,6818.475
722.366455078,6763.075
722.635437012,6743.625
722.904418945,6701.275
723.173400879,6751.875
723.442321777,6744.125
723.711181641,6677.35
723.980102539,6722.4
724.248962402,6683.1
724.51776123,6665.85
724.786560059,6687.2
725.055358887,6650.575
725.324035645,6617.125
725.592834473,6617.7
725.86151123,6579.65
726.130187988,6566.525
726.398803711,6550.1
726.667419434,6566.175
726.935974121,6514.3
727.204528809,6486.325
727.473083496,6472.6
727.741638184,6460.55
728.010070801,6409.375
728.278564453,6407.75
728.546936035,6403.625
728.815368652,6337.45
729.08380127,6282.6
729.352111816,6220.25
729.620361328,6144.825
729.88873291,6200.225
730.156982422,6207.525
730.425231934,6197.95
730.693481445,6193.65
730.961669922,6222.825
731.229797363,6202.875
731.49798584,6233.1
731.766113281,6226.975
732.034118652,6296.7
732.302246094,6304.85
732.570251465,6298.275
732.838256836,6311.625
733.106262207,6370.025
733.374145508,6351.425
733.642089844,6401.3
733.909973145,6392.4
734.177856445,6433.85
734.445678711,6498.325
734.713562012,6538.525
734.981323242,6533.75
735.249084473,6574.025
735.516845703,6649.025
735.784545898,6678.975
736.052185059,6689.225
736.319885254,6752.175
736.587524414,6771.425
736.855102539,6803.65
737.122619629,6864.725
737.390197754,6880.4
737.657714844,6928.95
737.925170898,6972.225
738.192749023,7019.35
738.460144043,7038.2
738.727539062,7073.025
738.994995117,7117.725
739.262329102,7148.3
739.529663086,7219.875
739.79699707,7210.925
740.06427002,7219.875
740.331481934,7261.575
740.598754883,7305.175
740.865905762,7296.0
741.133056641,7380.45
741.40032959,7365.0
741.667358398,7418.275
741.934448242,7416.55
742.201599121,7419.6
742.468566895,7498.9
742.735534668,7480.675
743.002563477,7495.05
743.26953125,7468.175
743.536437988,7502.4
743.803405762,7540.2
744.0703125,7501.8
744.337097168,7564.05
744.604003906,7480.05
744.870727539,7544.475
745.137512207,7507.4
745.40423584,7533.6
745.670959473,7481.55
745.93762207,7475.775
746.204284668,7480.45
746.470947266,7463.4
746.737548828,7442.625
747.004089355,7447.625
747.270751953,7455.375
747.53717041,7467.825
747.803710938,7376.5
748.070251465,7359.75
748.336608887,7356.125
748.603027344,7321.125
748.869445801,7309.8
749.135803223,7311.275
749.402099609,7291.375
749.668457031,7259.45
749.934753418,7224.625
750.20098877,7174.3
750.467224121,7197.3
750.733459473,7140.375
750.999572754,7123.1
751.26574707,7036.7
751.531860352,7065.575
751.797912598,7000.175
752.064025879,6964.45
752.330078125,6967.2
752.596069336,6913.85
752.862060547,6892.525
753.127990723,6854.125
753.393920898,6850.75
753.659912109,6794.475
753.925720215,6799.325
754.19152832,6738.4
754.457397461,6700.975
754.723144531,6679.7
754.988952637,6612.65
755.254699707,6619.65
755.520385742,6628.9
755.786071777,6612.15
756.051696777,6568.625
756.317382812,6527.2
756.582946777,6480.05
756.848510742,6472.85
757.114074707,6408.95
757.379577637,6395.55
757.645080566,6390.425
757.910583496,6378.8
758.175964355,6329.375
758.441345215,6301.725
758.706848145,6194.375
758.972106934,6184.725
759.237426758,6195.0
759.502807617,6206.3
759.768005371,6187.4
760.03326416,6139.0
760.298522949,6075.4
760.563659668,6087.525
760.828857422,6045.1
761.093994141,6044.175
761.359130859,5975.4
761.624206543,5972.7
761.889282227,5907.875
762.15423584,5883.3
762.419250488,5857.3
762.684265137,5817.375
762.949157715,5789.5
763.214050293,5812.4
763.479003906,5789.975
763.743835449,5756.7
764.008666992,5695.575
764.2734375,5680.45
764.538208008,5702.075
764.802978516,5681.7
765.067687988,5690.275
765.332397461,5664.675
765.597045898,5639.925
765.861694336,5599.35
766.126342773,5559.35
766.390930176,5538.425
766.655395508,5501.2
766.920043945,5484.075
767.184509277,5445.875
767.448974609,5438.95
767.713439941,5406.6
767.977783203,5381.05
768.2421875,5397.2
768.506591797,5326.5
768.770874023,5373.9
769.03515625,5339.1
769.299499512,5303.3
769.563720703,5297.3
769.827941895,5272.275
770.092163086,5251.575
770.356323242,5234.025
770.620483398,5235.025
770.88458252,5225.775
771.148681641,5210.15
771.412719727,5192.375
771.676757812,5173.325
771.940734863,5146.025
772.204711914,5138.15
772.468688965,5100.75
772.73260498,5094.475
772.996459961,5078.25
773.260314941,4536.65
773.524169922,623.475
773.787963867,135.325
774.051696777,119.25
774.315551758,120.05
774.579223633,120.55
774.842895508,118.75
775.106567383,120.85
775.370239258,117.0
775.633789062,122.875
775.897399902,124.575
776.160949707,119.975
776.424499512,121.25
776.687988281,123.0
776.951477051,125.725
777.214904785,120.7
777.47833252,119.4
