191.299911499,97.35
191.603515625,101.325
191.907119751,97.2
192.210693359,102.5
192.514251709,99.0
192.817810059,104.1
193.121368408,100.6
193.42489624,104.375
193.728408813,99.15
194.031936646,97.325
194.33543396,93.675
194.638916016,109.025
194.94241333,97.175
195.245880127,94.125
195.549331665,93.875
195.852767944,98.025
196.156204224,193.8
196.459625244,188.1
196.763015747,189.625
197.066436768,198.175
197.369812012,189.4
197.673187256,196.45
197.9765625,190.2
198.279922485,190.35
198.583251953,186.0
198.886581421,192.6
199.18989563,193.925
199.493209839,193.65
199.79649353,185.85
200.09979248,195.975
200.403076172,187.1
200.706314087,191.625
201.009567261,187.2
201.312820435,191.525
201.616027832,184.15
201.919235229,182.95
202.222457886,186.25
202.525634766,190.05
202.828826904,178.975
203.132003784,178.125
203.435150146,186.45
203.738296509,183.125
204.041412354,178.3
204.344558716,183.875
204.647659302,186.725
204.950759888,188.25
205.253845215,186.8
205.556930542,183.1
205.859985352,184.325
206.163024902,185.5
206.466079712,184.55
206.769104004,196.9
207.072113037,185.85
207.375137329,186.475
207.678131104,187.575
207.981109619,188.725
208.284088135,182.175
208.587036133,191.6
208.889984131,189.975
209.19291687,193.0
209.495849609,195.975
209.798751831,193.775
210.101654053,190.75
210.404556274,194.95
210.707427979,190.625
211.010269165,202.675
211.31312561,198.5
211.615982056,199.7
211.918807983,201.825
212.221618652,201.225
212.524429321,196.625
212.827224731,204.7
213.130004883,204.65
213.432769775,206.525
213.735534668,202.8
214.038269043,209.475
214.341003418,203.775
214.643737793,208.425
214.946456909,212.3
215.249145508,212.625
215.551834106,218.8
215.854507446,216.425
216.157165527,215.975
216.45980835,219.55
216.762451172,223.55
217.065078735,225.225
217.36769104,229.95
217.670303345,228.575
217.972885132,232.75
218.275466919,234.975
218.578048706,232.85
218.880599976,246.975
219.183120728,249.025
219.485656738,257.025
219.788192749,274.775
220.090682983,295.75
220.393188477,325.2
220.695663452,366.975
220.998138428,404.45
221.300582886,469.175
221.603042603,519.375
221.905487061,593.25
222.207901001,675.925
222.510299683,768.375
222.812728882,880.6
223.115097046,982.6
223.41746521,1099.025
223.719848633,1223.3
224.022171021,1344.3
224.324508667,1486.675
224.626846313,1643.375
224.929168701,1768.025
225.231460571,1928.825
225.533737183,2061.525
225.836013794,2223.4
226.138290405,2356.175
226.440536499,2515.8
226.742767334,2644.075
227.044998169,2758.225
227.347213745,2917.0
227.649429321,3036.2
227.951629639,3139.975
228.253799438,3244.1
228.555953979,3343.5
228.858123779,3464.35
229.160263062,3551.65
229.462371826,3644.45
229.764511108,3711.775
230.066619873,3776.8
230.36869812,3868.0
230.670776367,3930.3
230.972854614,4017.15
231.274902344,4116.375
231.576950073,4232.675
231.878967285,4298.5
232.180999756,4356.65
232.48298645,4449.825
232.784988403,4545.2
233.086975098,4606.725
233.388946533,4681.275
233.69090271,4759.1
233.992858887,4843.2
234.294769287,4858.775
234.596694946,4921.1
234.898605347,4975.5
235.200500488,5003.15
235.502380371,5012.075
235.804244995,5060.55
236.106109619,5023.25
236.407958984,5045.975
236.709777832,5069.45
237.011581421,5052.2
237.313400269,5036.925
237.615203857,5023.4
237.916976929,5018.475
238.21875,4940.625
238.520507812,4948.5
238.822250366,4912.725
239.12399292,4871.55
239.425704956,4872.5
239.727401733,4800.425
240.02911377,4798.1
240.330780029,4711.7
240.632446289,4658.675
240.93409729,4605.0
241.23576355,4568.25
241.537384033,4529.2
241.839004517,4469.275
242.140594482,4440.575
242.442199707,4385.05
242.743774414,4319.7
243.045333862,4281.05
243.346923828,4204.75
243.648452759,4136.9
243.949966431,4076.7
244.251495361,4040.75
244.552993774,3947.075
244.854492188,3851.1
245.155975342,3792.75
245.457443237,3714.05
245.758880615,3607.525
246.060333252,3561.3
246.36177063,3443.95
246.66317749,3350.95
246.964569092,3289.7
247.265945435,3204.65
247.567337036,3103.8
247.86869812,3059.8
248.170059204,3001.375
248.471389771,2933.325
248.772705078,2871.725
249.074035645,2822.4
249.375335693,2773.325
249.676620483,2720.125
249.977890015,2694.55
250.279159546,2665.95
250.58039856,2634.45
250.881637573,2581.45
251.182876587,2560.025
251.484069824,2531.75
251.785263062,2511.5
252.086456299,2507.225
252.387619019,2470.075
252.688781738,2463.3
252.989929199,2441.2
253.291061401,2440.625
253.592178345,2410.9
253.893280029,2402.3
254.194366455,2389.8
254.49546814,2384.1
254.796524048,2340.275
255.097579956,2351.825
255.398620605,2315.025
255.699645996,2321.025
256.000640869,2296.35
256.30166626,2298.85
256.602661133,2290.25
256.903656006,2269.375
257.204589844,2269.725
257.505523682,2244.5
257.80645752,2246.875
258.107391357,2239.25
258.408294678,2223.4
258.709228516,2223.0
259.010070801,2203.875
259.310943604,2201.05
259.611846924,2185.725
259.912658691,2173.2
260.213500977,2181.2
260.514343262,2178.85
260.815124512,2151.625
261.115936279,2165.2
261.416717529,2168.975
261.717468262,2171.525
262.018218994,2182.175
262.318969727,2198.7
262.619689941,2230.125
262.920410156,2275.725
263.221130371,2301.325
263.521789551,2334.825
263.822479248,2388.125
264.123138428,2438.0
264.42376709,2485.0
264.72442627,2515.925
265.025054932,2546.8
265.325622559,2605.075
265.626251221,2628.875
265.926818848,2676.85
266.227386475,2690.825
266.527954102,2712.225
266.828460693,2767.75
267.12902832,2755.475
267.429534912,2801.475
267.730010986,2822.95
268.030517578,2839.725
268.330993652,2902.3
268.631439209,2913.775
268.931915283,2970.375
269.232299805,2996.85
269.532745361,3055.5
269.8331604,3065.025
270.133544922,3117.1
270.433929443,3183.05
270.734313965,3206.675
271.034637451,3284.575
271.334991455,3318.95
271.635314941,3396.35
271.935638428,3464.625
272.235931396,3556.55
272.536254883,3624.75
272.836486816,3718.9
273.136749268,3837.7
273.437011719,3966.15
273.737213135,4086.05
274.037445068,4204.0
274.337677002,4326.9
274.6378479,4454.8
274.938049316,4621.475
275.238220215,4746.125
275.538360596,4899.5
275.838500977,5017.1
276.138641357,5199.325
276.438751221,5334.8
276.738830566,5431.0
277.03894043,5571.2
277.338989258,5739.8
277.639038086,5885.775
277.939056396,5993.95
278.239105225,6107.475
278.539093018,6245.5
278.839141846,6374.35
279.139129639,6471.7
279.439086914,6602.675
279.739044189,6729.2
280.039001465,6830.05
280.338928223,6959.8
280.63885498,7051.15
280.938781738,7148.85
281.238647461,7244.75
281.538513184,7289.975
281.838409424,7390.525
282.138244629,7484.25
282.438079834,7539.625
282.737945557,7644.5
283.037719727,7683.05
283.337524414,7786.1
283.637298584,7804.375
283.937072754,7863.15
284.236816406,7930.025
284.536560059,7954.85
284.836303711,7994.325
285.136016846,8083.225
285.43572998,8148.7
285.735412598,8136.675
286.035064697,8172.025
286.334747314,8240.5
286.634368896,8273.4
286.933990479,8266.175
287.233642578,8235.1
287.533203125,8250.55
287.832824707,8190.3
288.132385254,8128.725
288.431945801,8021.625
288.731506348,7912.45
289.031036377,7720.8
289.330566406,7630.575
289.630065918,7613.5
289.92956543,7629.475
290.229034424,7732.375
290.528503418,7898.05
290.827941895,8084.325
291.127380371,8241.175
291.42678833,8367.625
291.726226807,8515.5
292.025604248,8637.05
292.324981689,8644.7
292.624359131,8645.65
292.923736572,8657.3
293.223052979,8714.075
293.522369385,8703.75
293.821685791,8671.05
294.12097168,8644.2
294.420257568,8611.325
294.719543457,8580.225
295.018768311,8603.975
295.318023682,8526.5
295.617248535,8455.425
295.916442871,8387.55
296.215667725,8333.2
296.514862061,8186.325
296.813995361,7980.0
297.11315918,7774.95
297.412322998,7618.15
297.711425781,7576.1
298.010559082,7755.275
298.309631348,7988.425
298.608734131,8184.025
298.907806396,8407.575
299.206848145,8565.05
299.505889893,8640.25
299.804901123,8765.775
300.103912354,8858.0
300.402954102,8928.4
300.701904297,8990.375
301.00088501,9062.075
301.299835205,9158.525
301.5987854,9163.375
301.897735596,9267.175
302.196624756,9315.6
302.495513916,9398.225
302.794403076,9440.75
303.093292236,9464.9
303.392120361,9553.95
303.690979004,9627.1
303.989837646,9715.825
304.288604736,9733.0
304.587402344,9764.475
304.886199951,9790.225
305.184967041,9835.025
305.483734131,9908.0
305.782501221,9894.625
306.081176758,9897.975
306.37991333,9948.3
306.678619385,9957.6
306.977294922,10018.25
307.275970459,10026.15
307.574645996,10032.525
307.873260498,10000.275
308.171875,10005.1
308.470489502,9985.8
308.769104004,9901.075
309.067687988,9899.6
309.366241455,9931.925
309.664794922,9880.7
309.963348389,9873.525
310.261871338,9873.4
310.560394287,9886.125
310.858856201,9912.65
311.157348633,9944.875
311.455810547,9977.4
311.754272461,9981.525
312.052703857,10048.825
312.351135254,10078.75
312.649536133,10073.1
312.947937012,10028.25
313.246307373,10081.525
313.544647217,10054.925
313.843017578,10001.95
314.141387939,10020.925
314.439697266,10035.025
314.738006592,9942.15
315.036315918,9866.275
315.334564209,9774.35
315.6328125,9725.2
315.931091309,9667.175
316.229309082,9514.775
316.527526855,9382.725
316.825744629,9350.175
317.123901367,9249.325
317.422088623,9175.325
317.720245361,9194.575
318.0184021,9165.125
318.316497803,9239.275
318.614654541,9275.85
318.912750244,9337.5
319.21081543,9341.525
319.50894165,9372.875
319.806945801,9393.475
320.104980469,9362.825
320.403045654,9380.95
320.701049805,9322.3
320.999023438,9290.7
321.297027588,9262.25
321.595001221,9230.7
321.892913818,9193.375
322.190887451,9105.45
322.488830566,9072.2
322.786712646,9026.375
323.084625244,8921.625
323.382507324,8896.15
323.680358887,8820.35
323.978210449,8728.15
324.276062012,8666.85
324.573852539,8613.1
324.871643066,8552.25
325.169464111,8484.475
325.467224121,8430.275
325.764984131,8332.05
326.062744141,8258.875
326.360473633,8174.175
326.658203125,8123.25
326.955871582,8036.075
327.253570557,7970.875
327.551239014,7878.825
327.848907471,7812.05
328.146514893,7730.4
328.444152832,7671.175
328.741790771,7598.0
329.039367676,7569.9
329.336914062,7455.5
329.634521484,7415.825
329.932067871,7373.1
330.229553223,7250.525
330.527160645,7212.325
330.824615479,7173.9
331.12210083,7080.75
331.419586182,6941.0
331.717041016,6889.925
332.014465332,6800.925
332.311920166,6751.5
332.609313965,6708.15
332.906707764,6689.0
333.204101562,6671.35
333.501495361,6691.45
333.798828125,6744.05
334.096160889,6759.875
334.39352417,6826.325
334.690795898,6902.525
334.988098145,6940.55
335.285400391,7001.35
335.582641602,7010.75
335.879882812,7055.675
336.177124023,7045.575
336.474334717,7152.1
336.77154541,7110.825
337.068725586,7160.95
337.365905762,7171.95
337.66305542,7183.525
337.960205078,7218.375
338.257324219,7202.525
338.554443359,7221.425
338.8515625,7236.75
339.148590088,7230.575
339.445648193,7243.775
339.742736816,7210.85
340.039764404,7192.95
340.336761475,7153.25
340.63381958,7110.025
340.930755615,7072.875
341.227722168,6976.075
341.524688721,6883.625
341.821624756,6837.775
342.118560791,6851.875
342.415496826,6960.025
342.712402344,7090.475
343.009246826,7240.05
343.306121826,7391.1
343.602966309,7438.975
343.899810791,7524.85
344.196624756,7605.7
344.493438721,7641.825
344.79019165,7677.275
345.086975098,7747.35
345.383758545,7784.225
345.680480957,7744.45
345.977203369,7790.95
346.273956299,7849.35
346.570617676,7801.325
346.86730957,7825.975
347.163970947,7809.425
347.460601807,7846.425
347.757232666,7853.575
348.053894043,7819.6
348.350463867,7729.95
348.647064209,7769.3
348.943634033,7743.3
349.24017334,7727.55
349.536712646,7683.125
349.833251953,7670.125
350.129760742,7611.2
350.426208496,7639.25
350.722747803,7587.55
351.019195557,7568.2
351.315612793,7539.425
351.612060547,7482.4
351.908508301,7402.0
352.204864502,7367.175
352.501281738,7311.9
352.797637939,7233.475
353.093963623,7116.775
353.390319824,7083.225
353.686645508,6976.975
353.982940674,6908.95
354.27923584,6838.6
354.575531006,6789.025
354.871765137,6760.625
355.167999268,6737.825
355.464233398,6732.55
355.760437012,6738.7
356.056640625,6746.275
356.352813721,6753.575
356.648956299,6735.95
356.945129395,6739.375
357.241271973,6723.175
357.537384033,6756.5
357.833496094,6687.175
358.129577637,6661.3
358.425628662,6639.45
358.721679688,6614.15
359.017730713,6586.95
359.313720703,6505.875
359.609710693,6467.1
359.905761719,6407.675
360.201721191,6375.35
360.497650146,6273.575
360.793609619,6278.775
361.089538574,6165.25
361.385437012,6097.275
361.681365967,6028.375
361.977233887,5981.625
362.273071289,5897.475
362.568908691,5802.85
362.864746094,5634.825
363.160552979,5526.65
363.456359863,5309.65
363.752166748,5171.3
364.047912598,5075.25
364.343658447,5034.45
364.639434814,5058.325
364.935119629,5096.05
365.230834961,5168.375
365.526550293,5165.75
365.822174072,5184.975
366.117858887,5194.85
366.413482666,5233.625
366.709075928,5248.875
367.004730225,5136.575
367.300292969,5140.95
367.595855713,5192.95
367.891448975,5055.3
368.186981201,4944.95
368.482513428,4910.225
368.778015137,4890.25
369.073547363,4827.125
369.36895752,4830.35
369.664428711,4730.225
369.95993042,4615.75
370.255310059,4550.325
370.550720215,4523.75
370.846160889,4468.3
371.14151001,4430.975
371.436859131,4402.6
371.73223877,4385.675
372.027557373,4325.875
372.322875977,4277.225
372.618164062,4234.025
372.913482666,4187.125
373.208709717,4158.9
373.503967285,4101.025
373.799194336,4070.325
374.094421387,4054.225
374.389648438,4021.725
374.684844971,3992.5
374.979980469,4039.675
375.275146484,4035.1
375.570281982,4063.175
375.865386963,4066.175
376.160522461,3996.925
376.455596924,4006.075
376.750640869,4098.725
377.045715332,4102.875
377.340759277,4138.35
377.635772705,4163.8
377.93081665,4219.25
378.225769043,4276.925
378.520751953,4330.5
378.815734863,4278.725
379.110656738,4453.1
379.405548096,4602.95
379.700500488,4444.625
379.995391846,4229.65
380.290252686,4252.75
380.585083008,4363.025
380.879974365,4409.55
381.17477417,4320.025
381.469543457,4261.7
381.764404297,4230.425
382.059143066,4261.625
382.353912354,4330.8
382.648651123,4438.825
382.943389893,4393.25
383.238067627,4234.45
383.532775879,4231.95
383.827484131,4169.925
384.12210083,4158.925
384.416778564,4108.925
384.711425781,4013.975
385.006011963,4038.05
385.300628662,4021.725
385.595184326,4082.025
385.88973999,4166.0
386.184295654,4286.4
386.478820801,4349.95
386.77331543,4442.95
387.067840576,4545.0
387.362335205,4635.1
387.656768799,4709.575
387.951202393,4727.775
388.245635986,4797.225
388.540039062,4852.4
388.834472656,4923.55
389.128875732,4808.45
389.423187256,4601.875
389.717559814,4538.6
390.011871338,4650.175
390.306182861,4694.425
390.600463867,4706.775
390.894775391,4753.775
391.189025879,4790.6
391.48324585,4777.025
391.777526855,4826.65
392.071685791,5029.5
392.365875244,5102.9
392.660064697,5178.125
392.95425415,5502.975
393.248382568,5488.3
393.542510986,5027.9
393.836608887,4859.35
394.130706787,4857.425
394.424804688,4810.225
394.71887207,4924.975
395.012878418,4885.625
395.306915283,4799.025
395.600921631,4727.275
395.894927979,4683.175
396.188903809,4732.9
396.482879639,4742.575
396.776794434,4947.0
397.070739746,4912.025
397.364654541,4926.55
397.658538818,5307.325
397.952423096,5348.0
398.246307373,5301.425
398.540100098,5810.25
398.833953857,5710.875
399.127746582,5198.025
399.421508789,5242.425
399.715301514,5158.1
400.009063721,5074.825
400.30279541,4935.025
400.596496582,4845.425
400.890258789,5032.825
401.183929443,5095.925
401.47756958,4993.75
401.771240234,4772.2
402.064880371,4796.5
402.35848999,4853.2
402.652130127,4738.725
402.945678711,4795.4
403.239257812,4737.275
403.532775879,4687.625
403.82635498,4745.725
404.119842529,4684.175
404.413360596,4659.725
404.706848145,4702.625
405.000274658,4634.975
405.293762207,4748.175
405.587188721,4797.3
405.880584717,4627.625
406.17401123,4448.475
406.467407227,4269.3
406.760742188,4280.7
407.054107666,4288.825
407.347442627,4245.95
407.640716553,4247.25
407.934051514,4281.125
408.227325439,4359.425
408.520568848,4566.225
408.813842773,4653.65
409.107086182,4442.525
409.400238037,4412.6
409.693450928,4342.025
409.986633301,4484.0
410.279754639,4376.875
410.572875977,4104.05
410.86605835,4011.15
411.159118652,4050.4
411.452209473,4074.6
411.745330811,3920.2
412.038360596,3845.525
412.331390381,3891.7
412.624420166,3934.45
412.917388916,3827.8
413.210388184,3670.325
413.503387451,3634.2
413.796295166,3539.0
414.089233398,3368.05
414.382141113,3285.9
414.675048828,3268.575
414.967926025,3312.925
415.260803223,3265.575
415.55368042,3287.4
415.846466064,3231.675
416.139282227,3338.575
416.432098389,3464.875
416.724853516,3438.325
417.017608643,3398.525
417.31036377,3412.4
417.603088379,3541.275
417.895782471,3531.5
418.188476562,3490.05
418.481140137,3558.225
418.773803711,3603.25
419.066436768,3581.55
419.359039307,3677.675
419.651641846,3675.975
419.944244385,3677.95
420.236816406,3636.15
420.529327393,3856.375
420.821899414,3926.95
421.114379883,3847.725
421.406860352,4127.875
421.699371338,4354.975
421.991821289,4312.975
422.284240723,4095.3
422.576721191,3955.65
422.869110107,3847.125
423.161468506,3801.95
423.453857422,3842.0
423.74621582,3714.375
424.038543701,3566.8
424.330871582,3546.525
424.623168945,3480.7
424.915435791,3620.65
425.207702637,3584.25
425.499969482,3532.85
425.792205811,3478.2
426.084411621,3205.775
426.376617432,3310.3
426.668762207,3386.275
426.9609375,3262.75
427.253082275,3381.65
427.545196533,3810.525
427.837310791,3518.05
428.129425049,3237.175
428.421447754,3452.3
428.713531494,3446.625
429.005554199,3447.975
429.297576904,3454.45
429.589599609,3900.8
429.881561279,4225.55
430.173522949,4011.2
430.465484619,3971.4
430.757415771,4046.925
431.049316406,3809.125
431.341186523,3558.0
431.633117676,3460.225
431.924957275,3161.65
432.21673584,3036.85
432.508636475,3184.225
432.800415039,3222.25
433.092163086,3108.075
433.383972168,3082.275
433.675689697,3819.8
433.967437744,4314.4
434.259155273,3334.45
434.550872803,3015.325
434.842498779,3084.675
435.134185791,3201.375
435.425842285,3232.2
435.717437744,3142.55
436.009063721,2953.675
436.30065918,3108.075
436.592224121,3470.05
436.883758545,3241.4
437.175323486,2965.325
437.466827393,2950.625
437.758331299,2960.9
438.049804688,3000.7
438.341247559,3066.925
438.63269043,3150.85
438.924163818,3133.4
439.215515137,3090.9
439.50692749,2985.775
439.798309326,2996.95
440.089660645,3012.05
440.380981445,2904.925
440.672332764,2920.525
440.963623047,3179.475
441.254882812,3671.625
441.546173096,3859.075
441.837402344,3613.925
442.128631592,3416.675
442.41986084,3372.0
442.711029053,3255.425
443.002197266,3331.95
443.293365479,3516.975
443.584503174,3664.3
443.875610352,3632.725
444.166717529,3356.5
444.457794189,3388.375
444.748840332,3404.6
445.039916992,3328.65
445.330932617,3457.65
445.621948242,3278.075
445.912963867,3070.625
446.203918457,3320.6
446.494812012,3559.95
446.785827637,3347.75
447.076721191,3156.325
447.367584229,3138.675
447.658447266,3114.2
447.949371338,3185.2
448.24017334,3037.0
448.530975342,2976.1
448.821838379,3158.875
449.112579346,3232.5
449.40335083,3153.175
449.694152832,3183.325
449.984863281,3203.675
450.27557373,3126.925
450.56628418,3186.975
450.856933594,3208.475
451.147583008,3043.275
451.438262939,2938.95
451.728881836,3154.825
452.019470215,3254.125
452.310089111,3020.875
452.600646973,3068.15
452.891174316,3134.575
453.181732178,2920.875
453.472229004,2796.525
453.762695312,2922.675
454.053222656,2935.55
454.343658447,2805.225
454.634063721,2740.825
454.924530029,2930.6
455.214935303,3085.075
455.505279541,3148.75
455.795715332,3004.175
456.086029053,2794.6
456.376312256,2766.625
456.666687012,2803.45
456.956939697,2918.35
457.247192383,2910.95
457.537445068,3000.5
457.827728271,3182.375
458.117919922,3111.85
458.408081055,3035.3
458.698303223,3227.325
458.988433838,3146.525
459.278564453,2981.4
459.568725586,3275.55
459.858825684,3378.175
460.148864746,3049.25
460.438995361,3013.525
460.729034424,3089.55
461.019042969,3068.1
461.309082031,3291.35
461.599060059,3169.05
461.889007568,2684.525
462.179016113,2511.325
462.468933105,2751.125
462.75881958,2874.075
463.048736572,2596.525
463.338592529,2881.65
463.628448486,3257.325
463.918365479,2942.65
464.2081604,3111.525
464.497924805,3077.95
464.787780762,3209.85
465.077514648,3536.75
465.367218018,3121.175
465.657012939,3354.1
465.946685791,3777.825
466.236358643,3351.15
466.526092529,2800.8
466.815734863,2787.675
467.105316162,2716.125
467.394927979,2749.1
467.684570312,2598.775
467.974121094,2693.15
468.263671875,2821.975
468.553222656,2580.375
468.842773438,2463.575
469.132232666,2349.55
469.42175293,2390.2
469.711212158,2359.925
470.000640869,2226.85
470.290100098,2285.225
470.579498291,2334.125
470.868835449,2317.925
471.158294678,2292.05
471.447601318,2265.775
471.736907959,2336.725
472.026275635,2411.1
472.315551758,2392.575
472.604797363,2383.275
472.894104004,2527.65
473.183319092,2651.25
473.47253418,2628.525
473.761779785,2631.55
474.05090332,2556.35
474.340087891,2505.125
474.629241943,2438.075
474.918365479,2616.5
475.207427979,2910.925
475.496551514,2936.025
475.785614014,2654.775
476.074645996,2435.7
476.363708496,2539.6
476.652679443,2689.675
476.941650391,2490.55
477.230682373,2335.975
477.519622803,2329.375
477.808502197,2497.45
478.097412109,2784.95
478.386352539,2725.05
478.675201416,2451.05
478.964050293,2338.8
479.25289917,2542.85
479.541717529,2617.875
479.830474854,2434.25
480.11932373,2814.0
480.408050537,3005.45
480.696777344,2595.45
480.985534668,2428.575
481.274200439,2551.1
481.562866211,2815.25
481.851593018,2848.25
482.140197754,2766.375
482.428833008,2622.625
482.717468262,2379.825
483.006011963,2426.25
483.294586182,2560.8
483.5831604,2595.675
483.871673584,2439.0
484.16015625,2610.9
484.448699951,2861.775
484.7371521,2906.625
485.02557373,2912.95
485.314025879,2630.0
485.602416992,4080.3
485.890777588,14421.975
486.179199219,12881.9
486.467559814,3459.45
486.755859375,2507.625
487.044219971,2948.3
487.332519531,3137.125
487.620758057,2700.0
487.908966064,2412.55
488.197265625,2202.025
488.485473633,2095.875
488.773651123,2213.275
489.061859131,2194.225
489.350006104,2160.075
489.638122559,2096.325
489.926300049,2119.3
490.214355469,2070.9
490.502441406,2015.4
490.790527344,1941.45
491.078552246,2143.875
491.366546631,2146.7
491.654602051,1900.225
491.942565918,1977.425
492.230499268,2025.475
492.518493652,1982.8
492.806396484,2027.6
493.094268799,1926.2
493.382202148,1978.5
493.670074463,2101.925
493.957885742,1938.975
494.245727539,1918.35
494.533508301,2126.95
494.821289062,2009.225
495.109100342,1820.775
495.396850586,1768.65
495.684539795,1723.8
495.972290039,1962.35
496.25994873,2325.475
496.547607422,2345.025
496.835296631,2146.925
497.122894287,1795.3
497.410522461,1706.275
497.6980896,1714.4
497.985687256,1677.975
498.273223877,1792.6
498.560760498,1866.225
498.848266602,1892.825
499.135772705,1859.625
499.423217773,1913.825
499.710693359,2037.55
499.998138428,1968.775
500.285522461,1769.075
500.572937012,1685.9
500.860290527,1764.075
501.147644043,1862.25
501.434997559,2110.725
501.722290039,1971.8
502.00958252,1705.775
502.296875,2012.325
502.584106445,1990.125
502.871337891,1792.325
503.158599854,1882.075
503.445770264,1959.175
503.732910156,1935.3
504.020141602,1739.125
504.307220459,1709.575
504.594329834,1745.825
504.881469727,1676.475
505.168518066,1758.9
505.455535889,1831.675
505.742614746,1694.55
506.029632568,1625.825
506.316589355,1839.0
506.603637695,1939.05
506.890563965,1711.85
507.177459717,1536.4
507.464385986,1439.675
507.751312256,1685.075
508.038146973,1773.625
508.325012207,1634.275
508.611877441,1687.7
508.898681641,1708.025
509.185424805,1519.4
509.472259521,1491.7
509.759002686,1569.6
510.045715332,1611.025
510.332458496,1554.5
510.619140625,1614.75
510.905761719,1521.825
511.192504883,1506.7
511.479095459,1559.925
511.765686035,1513.9
512.052307129,1406.625
512.338928223,1347.575
512.625427246,1415.625
512.91204834,1487.4
513.198486328,1466.025
513.484985352,1423.5
513.77142334,1342.425
514.057922363,1385.925
514.344299316,1394.425
514.63079834,1341.7
514.917175293,1324.625
515.203552246,1222.15
515.489868164,1202.275
515.776245117,1340.15
516.0625,1383.225
516.348815918,1278.625
516.635070801,1320.1
516.921325684,1375.45
517.207580566,1310.3
517.493774414,1205.75
517.779968262,1211.625
518.066101074,1260.025
518.352294922,1195.125
518.638366699,1214.25
518.924499512,1296.075
519.210632324,1379.925
519.496643066,1337.1
519.782714844,1230.875
520.068786621,1196.025
520.354736328,1149.6
520.640686035,1104.025
520.926757812,1162.675
521.212646484,1247.45
521.498535156,1258.375
521.784484863,1183.875
522.0703125,1123.275
522.356262207,1133.425
522.642089844,1215.05
522.927856445,1216.2
523.213684082,1202.725
523.499511719,1195.725
523.78527832,1235.75
524.070983887,1301.625
524.356750488,1265.925
524.64239502,1221.525
524.928039551,1224.025
525.213806152,1239.45
525.499389648,1214.3
525.784973145,1257.75
526.070617676,1308.75
526.356140137,1270.45
526.641723633,1275.25
526.927307129,1337.65
527.212768555,1347.7
527.498291016,1323.9
527.783752441,1332.55
528.069213867,1299.5
528.354675293,1326.425
528.640014648,1507.25
528.925476074,1587.175
529.21081543,1503.675
529.496154785,1473.35
529.781555176,1433.175
530.066833496,1460.3
530.352050781,1484.8
530.637390137,1464.65
530.922607422,1461.875
531.207824707,1455.0
531.493041992,1442.675
531.778198242,1523.425
532.063354492,1495.775
532.348571777,1434.25
532.633666992,1447.85
532.918762207,1532.25
533.203857422,1646.3
533.488891602,1666.6
533.773925781,1603.55
534.059020996,1575.2
534.343933105,1615.6
534.628967285,1579.625
534.91394043,1602.8
535.198852539,1611.925
535.483703613,1589.2
535.768676758,1525.25
536.053527832,1524.35
536.338317871,1470.625
536.62322998,1413.4
536.90802002,1379.975
537.192810059,1402.975
537.477539062,1490.45
537.762329102,1544.075
538.047058105,1596.55
538.331726074,1625.125
538.616455078,1598.225
538.901123047,1579.475
539.18572998,1628.375
539.470397949,1638.9
539.755004883,1619.9
540.039550781,1588.55
540.32409668,1531.95
540.608703613,1577.75
540.893188477,1685.675
541.17767334,1695.9
541.462158203,1699.925
541.746643066,1650.775
542.031066895,1679.45
542.315429688,1737.275
542.59979248,1724.675
542.884216309,1720.35
543.168579102,1705.225
543.452941895,1715.95
543.737243652,1778.6
544.021484375,1822.4
544.305725098,1820.275
544.590026855,1788.125
544.874267578,1792.7
545.158447266,1871.825
545.442626953,1774.8
545.726806641,1669.925
546.010925293,1713.475
546.29510498,1743.075
546.579162598,1731.95
546.863220215,1773.75
547.147277832,1852.825
547.431335449,1931.55
547.715332031,2006.125
547.999328613,2135.0
548.283325195,2140.2
548.567260742,1973.65
548.851135254,1942.9
549.135070801,1907.05
549.419006348,1815.4
549.702819824,1918.875
549.986755371,2001.15
550.270507812,1964.475
550.554321289,2009.675
550.83807373,2025.975
551.121826172,1981.15
551.405517578,1996.9
551.689331055,2132.375
551.973022461,2369.325
552.256652832,2435.25
552.540344238,2347.575
552.823974609,2318.475
553.107543945,2305.875
553.391174316,2358.25
553.674743652,2435.4
553.958251953,2432.425
554.241821289,2438.975
554.525268555,2368.95
554.808776855,2371.825
555.092285156,2584.0
555.375671387,2667.6
555.659057617,2668.55
555.942504883,2694.375
556.225891113,2744.3
556.509216309,2701.825
556.792541504,2598.55
557.075866699,2666.625
557.359130859,2721.375
557.64239502,2713.525
557.92565918,2810.25
558.208862305,2780.475
558.49206543,2713.85
558.77532959,2735.5
559.058410645,2771.15
559.341552734,2774.325
559.624694824,2834.975
559.907775879,2905.875
560.190856934,3056.7
560.473937988,3034.375
560.756896973,3072.6
561.039978027,3128.6
561.322937012,3072.125
561.605895996,3059.7
561.88885498,3004.675
562.171813965,3022.575
562.454650879,3002.55
562.737548828,3036.875
563.020446777,3127.075
563.303283691,3140.775
563.58605957,3182.35
563.868896484,3198.175
564.151672363,3245.325
564.434387207,3300.35
564.717163086,3260.375
564.99987793,3303.15
565.282531738,3373.825
565.565185547,3305.425
565.847839355,3318.175
566.130432129,3453.675
566.413085938,3424.275
566.695678711,3440.1
566.978149414,3561.475
567.260681152,3737.95
567.543273926,3807.7
567.825744629,3700.05
568.108154297,3745.925
568.390686035,3885.75
568.673095703,4007.8
568.955505371,4060.7
569.237854004,4095.25
569.520202637,4405.275
569.802490234,4632.125
570.084838867,4615.2
570.367126465,4442.4
570.649414062,4451.2
570.93170166,4851.15
571.213928223,4920.175
571.496154785,4657.825
571.778381348,4877.35
572.06048584,5186.425
572.342590332,4696.35
572.624755859,4294.05
572.906860352,4364.275
573.188903809,5124.6
573.470947266,5394.975
573.752990723,5134.15
574.03503418,5239.925
574.317016602,5692.275
574.598937988,5421.3
574.88092041,5289.7
575.162841797,5502.775
575.444763184,5072.2
575.726623535,4808.975
576.008483887,4841.775
576.290344238,5302.15
576.572143555,5516.425
576.853881836,5584.875
577.135681152,5487.8
577.417419434,5547.925
577.699157715,6510.325
577.980895996,6683.0
578.262573242,5962.75
578.544128418,5426.575
578.825866699,5370.0
579.107421875,5010.85
579.388977051,5211.7
579.670593262,5658.675
579.952148438,5468.575
580.233642578,5598.925
580.515197754,5709.05
580.796691895,5360.8
581.078125,5591.325
581.359619141,7255.5
581.640991211,7351.7
581.922363281,6334.825
582.203796387,6407.75
582.485107422,5995.35
582.766418457,5545.5
583.047790527,5393.35
583.329040527,5256.7
583.610290527,5127.2
583.891540527,5246.1
584.172790527,5597.2
584.453918457,5622.025
584.735107422,5660.3
585.016235352,6182.95
585.297363281,6130.3
585.578552246,5919.225
585.859619141,5842.275
586.140625,5583.425
586.421630859,5444.325
586.702697754,5482.525
586.983642578,5737.825
587.264648438,5936.0
587.545654297,5861.45
587.826477051,5796.4
588.107421875,5575.85
588.388305664,5635.65
588.669189453,5720.4
588.950012207,5552.125
589.230834961,5456.35
589.511657715,5553.9
589.792358398,5643.45
590.073120117,5642.8
590.353881836,5616.45
590.63458252,5632.225
590.915283203,5581.25
591.195922852,5578.2
591.4765625,5635.225
591.757202148,5698.775
592.037780762,5647.875
592.31829834,5663.075
592.598937988,5903.1
592.879394531,6076.75
593.159912109,5986.15
593.440429688,5924.125
593.720825195,5886.125
594.001281738,5865.625
594.281677246,5772.35
594.562072754,5802.05
594.842407227,5877.0
595.122802734,5949.275
595.403137207,5907.35
595.683410645,5893.7
595.963623047,5890.225
596.243896484,5822.25
596.524169922,5830.75
596.804382324,5832.625
597.084533691,5859.9
597.364746094,5889.05
597.644836426,5926.85
597.924987793,5896.375
598.205078125,5888.325
598.485107422,5899.65
598.765197754,6036.875
599.045227051,6095.775
599.325195312,5976.575
599.605224609,5936.325
599.885192871,5999.275
600.165100098,6030.075
600.445007324,5978.225
600.724914551,5972.775
601.004760742,6008.175
601.284667969,6019.175
601.56451416,5983.2
601.844238281,5971.0
602.124084473,6000.65
602.403808594,5995.7
602.683532715,6030.25
602.963256836,5988.9
603.242919922,6074.55
603.522583008,6099.0
603.802246094,6080.525
604.081848145,6029.775
604.36138916,6000.625
604.641052246,6033.3
604.920532227,6011.05
605.200073242,6046.8
605.479614258,6082.475
605.759094238,6109.6
606.038574219,6112.35
606.317932129,6031.8
606.597412109,6033.95
606.87677002,6061.8
607.15612793,6093.3
607.435546875,6082.2
607.714782715,6100.825
607.99407959,6039.525
608.273376465,6031.625
608.552612305,6060.3
608.831848145,6096.7
609.111083984,6074.75
609.390258789,6060.0
609.669433594,6033.95
609.948608398,6136.075
610.227722168,6079.675
610.506713867,6047.925
610.785888672,6055.275
611.064880371,6022.075
611.34387207,6050.475
611.622924805,6063.625
611.901916504,6053.45
612.180847168,6023.75
612.459777832,6000.175
612.738647461,6009.2
613.01751709,5978.85
613.296447754,5928.45
613.575317383,5895.7
613.854064941,5812.625
614.132873535,5735.225
614.411621094,5680.275
614.690368652,5641.525
614.969177246,5585.025
615.247802734,5484.225
615.526489258,5473.75
615.805175781,5327.6
616.08380127,5227.625
616.362365723,5142.525
616.640991211,5101.225
616.919555664,5019.5
617.198059082,5154.05
617.4765625,5436.5
617.755126953,5597.0
618.033569336,5624.975
618.311950684,5633.725
618.590454102,5618.15
618.868774414,5596.75
619.147155762,5598.5
619.425598145,5595.225
619.703857422,5616.6
619.982177734,5617.075
620.260498047,5617.475
620.538757324,5588.275
620.816955566,5553.35
621.095214844,5506.05
621.373413086,5526.5
621.651550293,5583.125
621.929748535,5613.925
622.207824707,5589.5
622.485900879,5615.275
622.764038086,5606.325
623.042053223,5657.975
623.320007324,5682.175
623.598083496,5717.375
623.876037598,5662.15
624.153991699,5675.425
624.432006836,5694.975
624.709838867,5707.3
624.987731934,5669.825
625.265563965,5675.525
625.543395996,5717.375
625.821228027,5755.15
626.098999023,5741.925
626.376831055,5789.45
626.654541016,5814.325
626.932250977,5857.875
627.209960938,5917.075
627.487670898,5944.275
627.765319824,5920.425
628.04296875,5944.225
628.320495605,5963.6
628.598083496,5951.4
628.875671387,5988.7
629.153259277,6028.475
629.430725098,6094.1
629.708251953,6095.6
629.985656738,6099.725
630.263122559,6146.65
630.540588379,6164.0
630.817932129,6191.55
631.095275879,6224.9
631.372680664,6277.1
631.649963379,6321.025
631.927246094,6380.825
632.204589844,6404.65
632.481811523,6458.825
632.759033203,6550.225
633.036254883,6557.4
633.313415527,6667.225
633.590576172,6730.05
633.867736816,6812.0
634.144836426,6900.25
634.421875,6933.675
634.698913574,7010.825
634.976013184,7069.225
635.252990723,7136.025
635.529968262,7158.55
635.807006836,7252.2
636.08392334,7245.5
636.360839844,7149.85
636.637756348,7050.5
636.914611816,7017.225
637.191467285,6976.7
637.468261719,7064.35
637.745056152,7050.375
638.021789551,7080.825
638.298583984,7090.0
638.575317383,7137.65
638.851989746,7154.4
639.12878418,7141.5
639.405395508,7141.95
639.682006836,7159.575
639.958618164,7172.9
640.235229492,7156.125
640.511779785,7173.875
640.788330078,7155.625
641.064880371,7162.075
641.341308594,7140.95
641.617797852,7154.875
641.894226074,7147.175
642.170654297,7180.675
642.44708252,7179.45
642.723388672,7156.45
642.999755859,7156.675
643.276123047,7179.8
643.552429199,7132.15
643.828674316,7152.45
644.104919434,7153.275
644.381164551,7116.7
644.657348633,7136.075
644.933532715,7104.575
645.209716797,7136.9
645.485839844,7119.95
645.761901855,7138.225
646.038024902,7104.35
646.314086914,7152.575
646.590087891,7139.55
646.866149902,7160.225
647.142150879,7081.6
647.41809082,7069.975
647.694030762,7099.0
647.969970703,7080.35
648.245788574,7100.525
648.521728516,7108.075
648.797546387,7080.975
649.073303223,7136.55
649.349182129,7100.0
649.624938965,7105.05
649.900634766,7099.675
650.176391602,7081.675
650.452087402,7077.65
650.727783203,7063.525
651.003479004,7087.95
651.279052734,7062.65
651.554626465,7043.775
651.83026123,7035.15
652.105773926,7072.85
652.381286621,7019.375
652.656860352,7027.775
652.932312012,7061.475
653.207763672,7072.325
653.483215332,7111.475
653.758605957,7067.525
654.033935547,7078.65
654.309326172,7105.85
654.584716797,7114.575
654.859985352,7094.575
655.135253906,7141.175
655.410583496,7141.375
655.685791016,8225.275
655.9609375,12771.775
656.236206055,12483.375
656.511291504,8319.55
656.786437988,7310.05
657.061645508,7187.025
657.336669922,7175.65
657.611694336,7225.8
657.886779785,7228.05
658.161804199,7274.35
658.436828613,7224.4
658.711791992,7263.975
658.986755371,7258.525
659.261657715,7271.7
659.536621094,7285.4
659.811401367,7300.55
660.086303711,7339.975
660.36114502,7294.325
660.635864258,7310.15
660.910644531,7361.575
661.185424805,7314.775
661.460205078,7380.05
661.734863281,7367.55
662.009521484,7363.45
662.284179688,7403.95
662.558776855,7393.375
662.833435059,7462.275
663.108032227,7466.9
663.382568359,7440.95
663.657043457,7507.15
663.93157959,7528.675
664.206054688,7514.2
664.48046875,7557.05
664.755004883,7590.075
665.02935791,7603.775
665.303710938,7624.05
665.578125,7660.975
665.852416992,7668.325
666.126708984,7623.575
666.401062012,7672.225
666.675292969,7706.5
666.949462891,7688.9
667.223754883,7701.85
667.497924805,7755.6
667.772094727,7770.475
668.046264648,7754.125
668.3203125,7834.25
668.594421387,7850.375
668.868469238,7857.975
669.14251709,7847.1
669.416503906,7880.275
669.690551758,7924.025
669.964477539,7913.825
670.23840332,7911.1
670.512329102,7923.75
670.786254883,7916.05
671.060058594,7986.475
671.333984375,7980.9
671.607788086,8000.55
671.881530762,7998.0
672.155334473,8041.125
672.429077148,8047.65
672.702758789,8085.925
672.97644043,8064.575
673.25012207,8068.875
673.523742676,8062.05
673.797302246,8065.875
674.070922852,8159.825
674.344482422,8152.15
674.618041992,8146.45
674.891601562,8156.55
675.165100098,8214.35
675.438476562,8182.8
675.711975098,8206.2
675.985412598,8181.475
676.258789062,8188.675
676.532165527,8222.475
676.805480957,8230.025
677.078796387,8250.725
677.352111816,8261.65
677.625366211,8242.75
677.898620605,8242.325
678.171875,8325.425
678.445007324,8318.05
678.718200684,8348.625
678.991394043,8331.75
679.264404297,8340.775
679.537536621,8367.975
679.81060791,8402.95
680.083679199,8389.35
680.356689453,8388.4
680.629699707,8416.275
680.902648926,8410.725
681.175598145,8470.5
681.448547363,8494.05
681.721435547,8442.25
681.99420166,8465.125
682.267150879,8448.625
682.539916992,8536.375
682.812744141,8502.1
683.085510254,8473.45
683.358215332,8513.825
683.63092041,8514.325
683.903625488,8495.5
684.176330566,8487.175
684.448913574,8482.05
684.721557617,8483.1
684.99420166,8561.775
685.266662598,8530.475
685.539245605,8580.35
685.811767578,8608.4
686.084289551,8609.625
686.356689453,8653.375
686.629150391,8683.075
686.901550293,8712.875
687.17401123,8734.55
687.446350098,8754.425
687.718688965,8753.825
687.990966797,8812.625
688.263305664,8818.425
688.535522461,8786.625
688.807739258,8773.325
689.079956055,8841.275
689.352172852,8877.2
689.624328613,8865.375
689.896484375,8873.7
690.168518066,8911.15
690.440612793,8948.825
690.71270752,8952.75
690.984741211,8974.15
691.256713867,8985.375
691.528747559,8977.5
691.800720215,9033.475
692.072631836,9016.95
692.344543457,9057.375
692.616394043,9088.275
692.888244629,9111.6
693.160095215,9137.575
693.431945801,9144.95
693.703674316,9117.1
693.975463867,9102.575
694.247131348,9176.0
694.518859863,9153.4
694.790588379,9187.4
695.062255859,9190.1
695.33380127,9191.525
695.60546875,9212.25
695.87701416,9230.575
696.148498535,9258.0
696.42010498,9283.95
696.691589355,9284.65
696.96307373,9355.35
697.234558105,9403.75
697.50592041,9353.6
697.777282715,9380.825
698.048706055,9396.625
698.320068359,9428.475
698.591308594,9425.75
698.862670898,9413.1
699.133972168,9480.55
699.405151367,9473.625
699.676391602,9500.1
699.947570801,9463.9
700.21875,9498.25
700.489868164,9499.7
700.761047363,9525.125
701.032104492,9572.1
701.303100586,9511.475
701.57421875,9582.2
701.845214844,9573.975
702.116149902,9588.675
702.387207031,9582.6
702.65814209,9603.575
702.928955078,9671.2
703.199951172,9613.9
703.47076416,9595.1
703.741577148,9621.825
704.012451172,9669.025
704.28314209,9683.175
704.553955078,9651.475
704.824707031,9716.725
705.095397949,9761.425
705.366027832,9761.475
705.63671875,9781.6
705.907348633,9741.05
706.17791748,9760.075
706.448486328,9779.5
706.719055176,9813.525
706.989562988,9834.35
707.260131836,9848.725
707.530517578,9873.525
707.800964355,9851.325
708.071411133,9807.6
708.341796875,9802.35
708.612182617,9822.4
708.882446289,9785.325
709.152893066,9856.05
709.423156738,9868.175
709.693359375,9818.025
709.963623047,9872.775
710.233825684,9916.225
710.503967285,9843.05
710.774169922,9898.25
711.044311523,9890.8
711.31439209,9890.85
711.584533691,9927.425
711.854553223,9925.025
712.124572754,9913.8
712.39465332,9891.9
712.664611816,9926.675
712.934509277,10004.525
713.204467773,9972.675
713.474365234,9972.1
713.74420166,10006.325
714.014099121,10008.775
714.283874512,10018.475
714.553710938,10030.475
714.823486328,10009.075
715.093200684,10016.1
715.362915039,10040.075
715.632629395,10023.25
715.902282715,9976.075
716.171875,9959.25
716.441589355,9985.075
716.711181641,9969.175
716.980712891,10007.375
717.250244141,9996.3
717.519775391,10018.625
717.78918457,9993.975
718.058654785,10088.4
718.328125,10107.575
718.597473145,10060.8
718.866882324,10072.975
719.136230469,10073.675
719.405578613,10111.325
719.674865723,10116.0
719.944152832,10051.95
720.213439941,10057.725
720.48260498,10121.45
720.75177002,10090.75
721.020996094,10129.675
721.290100098,10105.3
721.559204102,10073.675
721.828308105,10121.225
722.097351074,10136.025
722.366455078,10108.325
722.635437012,10089.0
722.904418945,10072.225
723.173400879,10106.125
723.442321777,10114.7
723.711181641,10103.1
723.980102539,10141.1
724.248962402,10139.4
724.51776123,10116.525
724.786560059,10140.875
725.055358887,10163.3
725.324035645,10112.775
725.592834473,10123.025
725.86151123,10105.525
726.130187988,10086.95
726.398803711,10075.15
726.667419434,10096.35
726.935974121,10078.85
727.204528809,10027.8
727.473083496,10031.225
727.741638184,10018.25
728.010070801,10016.775
728.278564453,10035.5
728.546936035,10025.475
728.815368652,9950.85
729.08380127,9844.7
729.352111816,9812.95
729.620361328,9761.175
729.88873291,9814.325
730.156982422,9857.75
730.425231934,9856.075
730.693481445,9877.375
730.961669922,9944.6
731.229797363,9954.8
731.49798584,9989.7
731.766113281,10039.375
732.034118652,10149.925
732.302246094,10183.175
732.570251465,10192.325
732.838256836,10261.35
733.106262207,10338.55
733.374145508,10378.775
733.642089844,10444.7
733.909973145,10487.825
734.177856445,10582.475
734.445678711,10670.825
734.713562012,10793.025
734.981323242,10765.3
735.249084473,10836.975
735.516845703,11041.725
735.784545898,11099.375
736.052185059,11126.8
736.319885254,11242.65
736.587524414,11323.3
736.855102539,11388.2
737.122619629,11532.625
737.390197754,11529.475
737.657714844,11698.625
737.925170898,11738.875
738.192749023,11868.725
738.460144043,11935.7
738.727539062,11991.525
738.994995117,12116.775
739.262329102,12190.15
739.529663086,12300.8
739.79699707,12337.375
740.06427002,12426.85
740.331481934,12515.475
740.598754883,12580.15
740.865905762,12547.075
741.133056641,12784.15
741.40032959,12757.7
741.667358398,12846.875
741.934448242,12921.475
742.201599121,12935.275
742.468566895,13071.325
742.735534668,13125.75
743.002563477,13126.775
743.26953125,13117.375
743.536437988,13227.625
743.803405762,13337.25
744.0703125,13296.4
744.337097168,13379.425
744.604003906,13289.65
744.870727539,13392.8
745.137512207,13461.4
745.40423584,13493.175
745.670959473,13450.1
745.93762207,13471.15
746.204284668,13516.975
746.470947266,13533.575
746.737548828,13499.475
747.004089355,13543.425
747.270751953,13551.35
747.53717041,13602.05
747.803710938,13526.775
748.070251465,13498.725
748.336608887,13509.0
748.603027344,13498.125
748.869445801,13531.85
749.135803223,13502.95
749.402099609,13518.325
749.668457031,13521.575
749.934753418,13466.825
750.20098877,13433.7
750.467224121,13488.5
750.733459473,13463.25
750.999572754,13422.825
751.26574707,13327.875
751.531860352,13385.7
751.797912598,13340.25
752.064025879,13271.95
752.330078125,13296.525
752.596069336,13256.225
752.862060547,13200.75
753.127990723,13188.375
753.393920898,13192.325
753.659912109,13114.55
753.925720215,13190.425
754.19152832,13146.65
754.457397461,13042.6
754.723144531,13054.075
754.988952637,12994.4
755.254699707,13016.3
755.520385742,13078.425
755.786071777,13056.575
756.051696777,13020.175
756.317382812,12937.425
756.582946777,12883.225
756.848510742,12925.375
757.114074707,12861.975
757.379577637,12841.8
757.645080566,12921.975
757.910583496,12866.575
758.175964355,12770.775
758.441345215,12783.625
758.706848145,12612.25
758.972106934,12629.3
759.237426758,12658.15
759.502807617,12687.55
759.768005371,12662.4
760.03326416,12607.775
760.298522949,12542.25
760.563659668,12598.05
760.828857422,12554.05
761.093994141,12533.55
761.359130859,12478.65
761.624206543,12473.975
761.889282227,12427.975
762.15423584,12421.3
762.419250488,12430.75
762.684265137,12336.3
762.949157715,12306.3
763.214050293,12293.825
763.479003906,12287.6
763.743835449,12232.4
764.008666992,12195.525
764.2734375,12194.35
764.538208008,12237.575
764.802978516,12254.025
765.067687988,12192.775
765.332397461,12205.65
765.597045898,12156.7
765.861694336,12120.925
766.126342773,12081.2
766.390930176,12087.75
766.655395508,12013.275
766.920043945,12009.7
767.184509277,12010.8
767.448974609,11982.675
767.713439941,11959.725
767.977783203,11906.0
768.2421875,11928.025
768.506591797,11839.725
768.770874023,11988.65
769.03515625,11946.775
769.299499512,11924.25
769.563720703,11897.3
769.827941895,11832.6
770.092163086,11830.3
770.356323242,11775.025
770.620483398,11847.5
770.88458252,11828.425
771.148681641,11840.175
771.412719727,11806.175
771.676757812,11802.3
771.940734863,11722.0
772.204711914,11738.1
772.468688965,11677.95
772.73260498,11664.95
772.996459961,11715.15
773.260314941,10460.9
773.524169922,1333.325
773.787963867,159.9
774.051696777,120.5
774.315551758,117.6
774.579223633,120.45
774.842895508,118.55
775.106567383,119.475
775.370239258,116.55
775.633789062,119.825
775.897399902,122.75
776.160949707,116.225
776.424499512,120.55
776.687988281,121.175
776.951477051,126.15
777.214904785,121.375
777.47833252,119.825
