191.299911499,99.575
191.603515625,103.325
191.907119751,95.675
192.210693359,105.35
192.514251709,98.925
192.817810059,103.875
193.121368408,102.775
193.42489624,105.05
193.728408813,100.725
194.031936646,100.75
194.33543396,94.0
194.638916016,110.75
194.94241333,99.675
195.245880127,96.225
195.549331665,97.05
195.852767944,101.725
196.156204224,192.625
196.459625244,188.175
196.763015747,184.775
197.066436768,197.175
197.369812012,188.95
197.673187256,191.7
197.9765625,186.65
198.279922485,188.1
198.583251953,184.2
198.886581421,189.475
199.18989563,193.85
199.493209839,190.1
199.79649353,182.575
200.09979248,194.225
200.403076172,188.7
200.706314087,189.875
201.009567261,190.0
201.312820435,193.575
201.616027832,184.275
201.919235229,179.375
202.222457886,181.2
202.525634766,185.45
202.828826904,179.8
203.132003784,179.825
203.435150146,181.9
203.738296509,180.9
204.041412354,179.075
204.344558716,183.925
204.647659302,185.575
204.950759888,187.95
205.253845215,185.0
205.556930542,180.575
205.859985352,181.35
206.163024902,182.5
206.466079712,182.7
206.769104004,194.675
207.072113037,183.2
207.375137329,185.75
207.678131104,184.275
207.981109619,189.025
208.284088135,185.95
208.587036133,191.975
208.889984131,192.825
209.19291687,190.325
209.495849609,192.825
209.798751831,190.725
210.101654053,190.4
210.404556274,194.65
210.707427979,193.2
211.010269165,196.425
211.31312561,199.825
211.615982056,195.875
211.918807983,196.625
212.221618652,197.9
212.524429321,196.2
212.827224731,199.45
213.130004883,199.225
213.432769775,201.475
213.735534668,201.45
214.038269043,206.0
214.341003418,206.5
214.643737793,209.175
214.946456909,215.1
215.249145508,209.85
215.551834106,214.6
215.854507446,215.775
216.157165527,211.45
216.45980835,214.9
216.762451172,221.075
217.065078735,223.525
217.36769104,226.025
217.670303345,226.775
217.972885132,234.375
218.275466919,232.125
218.578048706,231.1
218.880599976,243.625
219.183120728,245.275
219.485656738,256.375
219.788192749,269.525
220.090682983,290.175
220.393188477,324.4
220.695663452,367.275
220.998138428,401.825
221.300582886,461.475
221.603042603,519.55
221.905487061,581.35
222.207901001,671.925
222.510299683,765.475
222.812728882,870.05
223.115097046,975.45
223.41746521,1096.1
223.719848633,1216.475
224.022171021,1330.325
224.324508667,1487.0
224.626846313,1618.3
224.929168701,1756.4
225.231460571,1896.975
225.533737183,2050.9
225.836013794,2196.6
226.138290405,2344.325
226.440536499,2484.0
226.742767334,2610.25
227.044998169,2737.575
227.347213745,2882.75
227.649429321,2983.95
227.951629639,3087.675
228.253799438,3207.025
228.555953979,3294.075
228.858123779,3403.85
229.160263062,3481.675
229.462371826,3558.8
229.764511108,3659.525
230.066619873,3700.125
230.36869812,3800.125
230.670776367,3883.575
230.972854614,3950.4
231.274902344,4041.325
231.576950073,4137.975
231.878967285,4206.175
232.180999756,4286.5
232.48298645,4383.1
232.784988403,4445.05
233.086975098,4519.05
233.388946533,4568.65
233.69090271,4659.1
233.992858887,4719.4
234.294769287,4776.1
234.596694946,4789.1
234.898605347,4853.775
235.200500488,4865.125
235.502380371,4910.075
235.804244995,4920.6
236.106109619,4884.275
236.407958984,4897.575
236.709777832,4913.0
237.011581421,4890.475
237.313400269,4849.0
237.615203857,4843.425
237.916976929,4851.9
238.21875,4802.9
238.520507812,4772.075
238.822250366,4753.075
239.12399292,4688.575
239.425704956,4686.225
239.727401733,4598.25
240.02911377,4574.3
240.330780029,4490.15
240.632446289,4461.1
240.93409729,4406.4
241.23576355,4342.15
241.537384033,4314.225
241.839004517,4245.625
242.140594482,4204.575
242.442199707,4157.675
242.743774414,4096.8
243.045333862,4039.8
243.346923828,3946.45
243.648452759,3921.95
243.949966431,3805.925
244.251495361,3773.275
244.552993774,3697.425
244.854492188,3580.4
245.155975342,3525.95
245.457443237,3441.825
245.758880615,3353.325
246.060333252,3283.2
246.36177063,3178.175
246.66317749,3103.825
246.964569092,3008.475
247.265945435,2935.45
247.567337036,2853.7
247.86869812,2810.55
248.170059204,2739.525
248.471389771,2648.775
248.772705078,2601.025
249.074035645,2556.25
249.375335693,2504.325
249.676620483,2470.375
249.977890015,2433.175
250.279159546,2392.85
250.58039856,2368.075
250.881637573,2320.275
251.182876587,2296.375
251.484069824,2258.925
251.785263062,2244.725
252.086456299,2242.4
252.387619019,2193.025
252.688781738,2175.1
252.989929199,2163.0
253.291061401,2161.65
253.592178345,2124.675
253.893280029,2121.925
254.194366455,2127.575
254.49546814,2094.025
254.796524048,2068.675
255.097579956,2078.475
255.398620605,2041.625
255.699645996,2058.025
256.000640869,2015.75
256.30166626,2017.6
256.602661133,2012.125
256.903656006,1976.425
257.204589844,1992.9
257.505523682,1965.6
257.80645752,1972.975
258.107391357,1953.65
258.408294678,1946.25
258.709228516,1926.525
259.010070801,1926.0
259.310943604,1935.075
259.611846924,1924.9
259.912658691,1902.825
260.213500977,1903.625
260.514343262,1908.575
260.815124512,1899.975
261.115936279,1897.45
261.416717529,1906.9
261.717468262,1916.25
262.018218994,1902.25
262.318969727,1937.0
262.619689941,1966.875
262.920410156,2000.575
263.221130371,2036.6
263.521789551,2081.325
263.822479248,2115.7
264.123138428,2155.175
264.42376709,2204.25
264.72442627,2227.6
265.025054932,2270.7
265.325622559,2312.9
265.626251221,2349.45
265.926818848,2386.525
266.227386475,2422.575
266.527954102,2433.175
266.828460693,2490.25
267.12902832,2490.625
267.429534912,2527.4
267.730010986,2566.025
268.030517578,2583.225
268.330993652,2622.325
268.631439209,2662.75
268.931915283,2679.7
269.232299805,2719.525
269.532745361,2768.475
269.8331604,2795.0
270.133544922,2852.55
270.433929443,2894.675
270.734313965,2945.775
271.034637451,3012.275
271.334991455,3076.45
271.635314941,3142.375
271.935638428,3200.45
272.235931396,3294.85
272.536254883,3375.975
272.836486816,3484.075
273.136749268,3564.325
273.437011719,3677.525
273.737213135,3835.1
274.037445068,3946.875
274.337677002,4051.025
274.6378479,4181.85
274.938049316,4361.175
275.238220215,4466.575
275.538360596,4624.475
275.838500977,4752.6
276.138641357,4915.225
276.438751221,5011.1
276.738830566,5172.875
277.03894043,5280.8
277.338989258,5453.475
277.639038086,5603.125
277.939056396,5707.525
278.239105225,5835.2
278.539093018,5971.175
278.839141846,6082.95
279.139129639,6178.55
279.439086914,6322.075
279.739044189,6444.675
280.039001465,6579.95
280.338928223,6636.825
280.63885498,6779.7
280.938781738,6874.95
281.238647461,6969.4
281.538513184,7030.3
281.838409424,7132.25
282.138244629,7219.875
282.438079834,7294.025
282.737945557,7360.55
283.037719727,7433.175
283.337524414,7495.175
283.637298584,7569.425
283.937072754,7601.275
284.236816406,7669.7
284.536560059,7686.275
284.836303711,7762.275
285.136016846,7859.5
285.43572998,7885.325
285.735412598,7937.6
286.035064697,7951.9
286.334747314,8049.725
286.634368896,8044.7
286.933990479,8038.8
287.233642578,8002.425
287.533203125,8033.75
287.832824707,7992.625
288.132385254,7918.85
288.431945801,7812.35
288.731506348,7698.225
289.031036377,7566.675
289.330566406,7457.05
289.630065918,7454.05
289.92956543,7446.9
290.229034424,7554.875
290.528503418,7724.8
290.827941895,7921.275
291.127380371,8077.75
291.42678833,8209.75
291.726226807,8348.05
292.025604248,8416.1
292.324981689,8446.875
292.624359131,8459.45
292.923736572,8502.1
293.223052979,8551.75
293.522369385,8556.65
293.821685791,8493.75
294.12097168,8497.8
294.420257568,8433.325
294.719543457,8413.175
295.018768311,8435.35
295.318023682,8349.1
295.617248535,8301.675
295.916442871,8281.25
296.215667725,8174.275
296.514862061,8039.725
296.813995361,7854.275
297.11315918,7602.65
297.412322998,7483.425
297.711425781,7450.225
298.010559082,7617.3
298.309631348,7839.875
298.608734131,8026.7
298.907806396,8272.825
299.206848145,8407.75
299.505889893,8496.7
299.804901123,8598.375
300.103912354,8690.4
300.402954102,8775.85
300.701904297,8820.5
301.00088501,8911.025
301.299835205,8970.125
301.5987854,9031.8
301.897735596,9121.875
302.196624756,9158.6
302.495513916,9260.9
302.794403076,9267.725
303.093292236,9341.9
303.392120361,9396.225
303.690979004,9471.575
303.989837646,9533.3
304.288604736,9597.05
304.587402344,9550.7
304.886199951,9627.4
305.184967041,9656.475
305.483734131,9721.175
305.782501221,9745.125
306.081176758,9779.0
306.37991333,9779.95
306.678619385,9816.0
306.977294922,9812.75
307.275970459,9837.275
307.574645996,9867.425
307.873260498,9828.875
308.171875,9824.4
308.470489502,9817.6
308.769104004,9766.025
309.067687988,9758.15
309.366241455,9749.85
309.664794922,9718.25
309.963348389,9736.525
310.261871338,9723.55
310.560394287,9749.7
310.858856201,9761.975
311.157348633,9793.075
311.455810547,9766.15
311.754272461,9806.775
312.052703857,9872.925
312.351135254,9893.575
312.649536133,9915.775
312.947937012,9890.275
313.246307373,9901.925
313.544647217,9934.55
313.843017578,9888.825
314.141387939,9840.775
314.439697266,9886.475
314.738006592,9784.875
315.036315918,9712.275
315.334564209,9617.45
315.6328125,9579.95
315.931091309,9496.55
316.229309082,9386.275
316.527526855,9250.475
316.825744629,9181.0
317.123901367,9068.45
317.422088623,9041.45
317.720245361,9040.725
318.0184021,9032.75
318.316497803,9090.55
318.614654541,9116.1
318.912750244,9230.175
319.21081543,9221.75
319.50894165,9264.95
319.806945801,9234.55
320.104980469,9220.375
320.403045654,9243.0
320.701049805,9213.6
320.999023438,9166.425
321.297027588,9133.65
321.595001221,9093.7
321.892913818,9050.925
322.190887451,8999.525
322.488830566,8944.375
322.786712646,8915.625
323.084625244,8788.325
323.382507324,8777.5
323.680358887,8679.775
323.978210449,8602.225
324.276062012,8561.675
324.573852539,8475.35
324.871643066,8433.95
325.169464111,8353.075
325.467224121,8297.225
325.764984131,8230.25
326.062744141,8140.35
326.360473633,8037.325
326.658203125,7989.975
326.955871582,7900.15
327.253570557,7835.2
327.551239014,7762.2
327.848907471,7714.45
328.146514893,7642.8
328.444152832,7521.5
328.741790771,7489.025
329.039367676,7463.175
329.336914062,7400.15
329.634521484,7284.0
329.932067871,7222.925
330.229553223,7171.25
330.527160645,7103.0
330.824615479,7052.125
331.12210083,6968.475
331.419586182,6832.525
331.717041016,6790.05
332.014465332,6719.225
332.311920166,6681.1
332.609313965,6606.575
332.906707764,6598.8
333.204101562,6575.425
333.501495361,6597.75
333.798828125,6637.525
334.096160889,6685.875
334.39352417,6731.8
334.690795898,6793.0
334.988098145,6837.05
335.285400391,6925.025
335.582641602,6902.575
335.879882812,6962.7
336.177124023,6966.875
336.474334717,7034.9
336.77154541,7012.35
337.068725586,7053.7
337.365905762,7068.3
337.66305542,7056.925
337.960205078,7097.875
338.257324219,7122.775
338.554443359,7120.7
338.8515625,7142.375
339.148590088,7139.275
339.445648193,7154.025
339.742736816,7112.675
340.039764404,7106.575
340.336761475,7055.775
340.63381958,7001.9
340.930755615,6928.8
341.227722168,6891.225
341.524688721,6791.275
341.821624756,6743.625
342.118560791,6762.375
342.415496826,6851.4
342.712402344,6980.75
343.009246826,7124.125
343.306121826,7276.75
343.602966309,7323.775
343.899810791,7419.45
344.196624756,7505.625
344.493438721,7544.925
344.79019165,7595.425
345.086975098,7637.475
345.383758545,7663.5
345.680480957,7650.45
345.977203369,7664.925
346.273956299,7715.05
346.570617676,7720.25
346.86730957,7722.35
347.163970947,7706.425
347.460601807,7748.975
347.757232666,7754.05
348.053894043,7734.525
348.350463867,7653.075
348.647064209,7636.35
348.943634033,7623.725
349.24017334,7636.575
349.536712646,7556.4
349.833251953,7578.6
350.129760742,7546.025
350.426208496,7546.725
350.722747803,7504.225
351.019195557,7487.65
351.315612793,7428.125
351.612060547,7390.45
351.908508301,7314.025
352.204864502,7256.725
352.501281738,7219.25
352.797637939,7129.75
353.093963623,7029.55
353.390319824,6972.325
353.686645508,6859.225
353.982940674,6803.075
354.27923584,6744.6
354.575531006,6669.55
354.871765137,6670.15
355.167999268,6638.9
355.464233398,6624.15
355.760437012,6641.2
356.056640625,6636.4
356.352813721,6648.325
356.648956299,6643.35
356.945129395,6642.275
357.241271973,6636.175
357.537384033,6655.175
357.833496094,6570.35
358.129577637,6560.475
358.425628662,6511.775
358.721679688,6503.2
359.017730713,6482.85
359.313720703,6400.725
359.609710693,6376.425
359.905761719,6309.775
360.201721191,6253.175
360.497650146,6175.725
360.793609619,6150.325
361.089538574,6068.025
361.385437012,5998.925
361.681365967,5936.8
361.977233887,5887.4
362.273071289,5811.45
362.568908691,5687.55
362.864746094,5569.475
363.160552979,5416.15
363.456359863,5237.125
363.752166748,5096.7
364.047912598,5002.925
364.343658447,4941.275
364.639434814,4996.5
364.935119629,5001.6
365.230834961,5072.35
365.526550293,5100.525
365.822174072,5094.6
366.117858887,5107.325
366.413482666,5135.375
366.709075928,5165.1
367.004730225,5057.5
367.300292969,5042.5
367.595855713,5090.8
367.891448975,4968.05
368.186981201,4853.275
368.482513428,4801.425
368.778015137,4795.275
369.073547363,4734.2
369.36895752,4744.825
369.664428711,4640.65
369.95993042,4538.975
370.255310059,4459.375
370.550720215,4427.375
370.846160889,4388.25
371.14151001,4348.8
371.436859131,4319.925
371.73223877,4293.175
372.027557373,4242.975
372.322875977,4191.7
372.618164062,4158.825
372.913482666,4104.9
373.208709717,4077.1
373.503967285,4019.675
373.799194336,3966.325
374.094421387,3964.15
374.389648438,3922.65
374.684844971,3903.075
374.979980469,3948.775
375.275146484,3953.675
375.570281982,3968.875
375.865386963,3981.35
376.160522461,3899.775
376.455596924,3918.975
376.750640869,4017.25
377.045715332,4015.375
377.340759277,4061.425
377.635772705,4085.225
377.93081665,4130.4
378.225769043,4186.075
378.520751953,4229.075
378.815734863,4193.075
379.110656738,4350.5
379.405548096,4504.225
379.700500488,4348.25
379.995391846,4130.95
380.290252686,4173.125
380.585083008,4267.3
380.879974365,4298.575
381.17477417,4197.85
381.469543457,4161.725
381.764404297,4133.575
382.059143066,4153.4
382.353912354,4241.275
382.648651123,4338.7
382.943389893,4288.25
383.238067627,4122.0
383.532775879,4132.75
383.827484131,4086.9
384.12210083,4066.975
384.416778564,4002.725
384.711425781,3935.55
385.006011963,3952.5
385.300628662,3930.225
385.595184326,3988.225
385.88973999,4085.5
386.184295654,4166.075
386.478820801,4239.1
386.77331543,4351.6
387.067840576,4435.2
387.362335205,4526.675
387.656768799,4587.225
387.951202393,4618.875
388.245635986,4663.9
388.540039062,4733.1
388.834472656,4805.25
389.128875732,4707.725
389.423187256,4479.9
389.717559814,4442.375
390.011871338,4533.9
390.306182861,4552.3
390.600463867,4573.225
390.894775391,4641.975
391.189025879,4655.2
391.48324585,4656.125
391.777526855,4683.1
392.071685791,4898.675
392.365875244,4994.0
392.660064697,5054.95
392.95425415,5366.325
393.248382568,5332.5
393.542510986,4915.125
393.836608887,4721.675
394.130706787,4739.875
394.424804688,4665.675
394.71887207,4810.225
395.012878418,4780.475
395.306915283,4684.425
395.600921631,4592.275
395.894927979,4568.4
396.188903809,4616.925
396.482879639,4636.125
396.776794434,4817.7
397.070739746,4796.9
397.364654541,4798.025
397.658538818,5173.3
397.952423096,5197.3
398.246307373,5161.475
398.540100098,5672.425
398.833953857,5545.525
399.127746582,5087.3
399.421508789,5096.7
399.715301514,5041.8
400.009063721,4964.075
400.30279541,4811.35
400.596496582,4743.825
400.890258789,4898.8
401.183929443,4969.7
401.47756958,4879.5
401.771240234,4642.2
402.064880371,4654.85
402.35848999,4726.375
402.652130127,4607.45
402.945678711,4681.7
403.239257812,4630.45
403.532775879,4584.175
403.82635498,4621.9
404.119842529,4552.55
404.413360596,4546.55
404.706848145,4594.0
405.000274658,4547.575
405.293762207,4607.275
405.587188721,4696.325
405.880584717,4513.025
406.17401123,4350.925
406.467407227,4150.125
406.760742188,4180.2
407.054107666,4215.025
407.347442627,4136.125
407.640716553,4134.65
407.934051514,4170.675
408.227325439,4237.8
408.520568848,4440.1
408.813842773,4540.125
409.107086182,4344.75
409.400238037,4294.25
409.693450928,4247.825
409.986633301,4342.575
410.279754639,4288.25
410.572875977,3996.7
410.86605835,3926.575
411.159118652,3950.0
411.452209473,3972.525
411.745330811,3829.725
412.038360596,3766.775
412.331390381,3800.7
412.624420166,3842.6
412.917388916,3753.75
413.210388184,3587.675
413.503387451,3559.1
413.796295166,3461.4
414.089233398,3298.2
414.382141113,3220.55
414.675048828,3196.275
414.967926025,3247.1
415.260803223,3187.45
415.55368042,3216.9
415.846466064,3183.55
416.139282227,3262.15
416.432098389,3377.175
416.724853516,3375.45
417.017608643,3318.375
417.31036377,3354.45
417.603088379,3479.3
417.895782471,3442.675
418.188476562,3413.25
418.481140137,3482.525
418.773803711,3536.075
419.066436768,3510.675
419.359039307,3585.075
419.651641846,3598.475
419.944244385,3591.0
420.236816406,3559.7
420.529327393,3786.225
420.821899414,3840.25
421.114379883,3780.975
421.406860352,4047.45
421.699371338,4272.85
421.991821289,4232.525
422.284240723,4025.1
422.576721191,3864.8
422.869110107,3780.375
423.161468506,3724.4
423.453857422,3753.925
423.74621582,3634.525
424.038543701,3494.3
424.330871582,3476.9
424.623168945,3425.0
424.915435791,3568.575
425.207702637,3510.1
425.499969482,3474.425
425.792205811,3422.35
426.084411621,3164.9
426.376617432,3264.525
426.668762207,3322.625
426.9609375,3200.2
427.253082275,3324.2
427.545196533,3720.125
427.837310791,3447.175
428.129425049,3154.55
428.421447754,3389.05
428.713531494,3400.0
429.005554199,3382.0
429.297576904,3397.3
429.589599609,3812.6
429.881561279,4145.925
430.173522949,3923.6
430.465484619,3874.75
430.757415771,3961.475
431.049316406,3741.025
431.341186523,3484.125
431.633117676,3407.55
431.924957275,3097.425
432.21673584,2982.775
432.508636475,3143.65
432.800415039,3155.95
433.092163086,3048.425
433.383972168,3027.1
433.675689697,3770.925
433.967437744,4241.85
434.259155273,3277.625
434.550872803,2968.4
434.842498779,3033.625
435.134185791,3159.225
435.425842285,3187.0
435.717437744,3065.25
436.009063721,2908.25
436.30065918,3044.825
436.592224121,3411.85
436.883758545,3197.25
437.175323486,2919.0
437.466827393,2921.475
437.758331299,2910.875
438.049804688,2952.125
438.341247559,3032.6
438.63269043,3110.8
438.924163818,3091.8
439.215515137,3061.075
439.50692749,2943.85
439.798309326,2960.9
440.089660645,2961.075
440.380981445,2871.925
440.672332764,2859.275
440.963623047,3147.725
441.254882812,3611.675
441.546173096,3793.75
441.837402344,3548.4
442.128631592,3348.175
442.41986084,3338.025
442.711029053,3205.775
443.002197266,3281.6
443.293365479,3467.6
443.584503174,3587.025
443.875610352,3583.525
444.166717529,3299.225
444.457794189,3350.675
444.748840332,3350.475
445.039916992,3298.225
445.330932617,3388.825
445.621948242,3230.075
445.912963867,3027.4
446.203918457,3280.85
446.494812012,3518.3
446.785827637,3304.725
447.076721191,3117.775
447.367584229,3091.25
447.658447266,3064.55
447.949371338,3109.275
448.24017334,2991.425
448.530975342,2926.0
448.821838379,3109.325
449.112579346,3179.725
449.40335083,3119.275
449.694152832,3130.175
449.984863281,3154.1
450.27557373,3085.075
450.56628418,3147.675
450.856933594,3162.25
451.147583008,3011.75
451.438262939,2869.65
451.728881836,3086.85
452.019470215,3205.15
452.310089111,2972.825
452.600646973,3022.775
452.891174316,3064.875
453.181732178,2880.975
453.472229004,2746.725
453.762695312,2864.15
454.053222656,2895.625
454.343658447,2762.2
454.634063721,2703.625
454.924530029,2875.8
455.214935303,3036.8
455.505279541,3084.2
455.795715332,2951.925
456.086029053,2745.0
456.376312256,2745.825
456.666687012,2771.9
456.956939697,2877.9
457.247192383,2878.65
457.537445068,2953.375
457.827728271,3144.675
458.117919922,3080.55
458.408081055,2998.65
458.698303223,3172.275
458.988433838,3103.775
459.278564453,2929.875
459.568725586,3214.85
459.858825684,3342.15
460.148864746,3004.475
460.438995361,2973.7
460.729034424,3030.125
461.019042969,3035.725
461.309082031,3236.575
461.599060059,3121.45
461.889007568,2645.625
462.179016113,2476.375
462.468933105,2695.9
462.75881958,2836.625
463.048736572,2564.825
463.338592529,2834.7
463.628448486,3209.225
463.918365479,2901.125
464.2081604,3076.025
464.497924805,3032.6
464.787780762,3182.175
465.077514648,3488.95
465.367218018,3093.475
465.657012939,3308.375
465.946685791,3734.825
466.236358643,3307.725
466.526092529,2775.15
466.815734863,2749.2
467.105316162,2675.825
467.394927979,2725.4
467.684570312,2573.825
467.974121094,2669.075
468.263671875,2765.2
468.553222656,2534.85
468.842773438,2446.3
469.132232666,2321.4
469.42175293,2349.75
469.711212158,2334.85
470.000640869,2193.9
470.290100098,2257.45
470.579498291,2310.225
470.868835449,2304.225
471.158294678,2249.35
471.447601318,2232.525
471.736907959,2310.125
472.026275635,2388.85
472.315551758,2358.475
472.604797363,2361.4
472.894104004,2504.925
473.183319092,2611.475
473.47253418,2596.95
473.761779785,2586.35
474.05090332,2516.425
474.340087891,2469.05
474.629241943,2391.15
474.918365479,2587.725
475.207427979,2866.025
475.496551514,2890.8
475.785614014,2616.15
476.074645996,2400.45
476.363708496,2500.2
476.652679443,2673.8
476.941650391,2480.725
477.230682373,2303.175
477.519622803,2304.2
477.808502197,2480.05
478.097412109,2748.35
478.386352539,2697.5
478.675201416,2420.8
478.964050293,2306.875
479.25289917,2516.025
479.541717529,2570.95
479.830474854,2409.9
480.11932373,2758.075
480.408050537,2954.1
480.696777344,2548.05
480.985534668,2421.25
481.274200439,2522.9
481.562866211,2786.025
481.851593018,2800.95
482.140197754,2737.875
482.428833008,2571.175
482.717468262,2359.4
483.006011963,2387.65
483.294586182,2522.175
483.5831604,2577.625
483.871673584,2417.7
484.16015625,2571.875
484.448699951,2819.275
484.7371521,2872.45
485.02557373,2890.55
485.314025879,2580.875
485.602416992,4029.225
485.890777588,14209.7
486.179199219,12748.225
486.467559814,3415.9
486.755859375,2486.0
487.044219971,2900.9
487.332519531,3109.575
487.620758057,2666.3
487.908966064,2381.675
488.197265625,2169.45
488.485473633,2071.975
488.773651123,2193.05
489.061859131,2196.0
489.350006104,2138.025
489.638122559,2067.1
489.926300049,2095.725
490.214355469,2024.8
490.502441406,1988.95
490.790527344,1908.2
491.078552246,2125.4
491.366546631,2111.275
491.654602051,1879.0
491.942565918,1960.125
492.230499268,2003.45
492.518493652,1959.6
492.806396484,2014.725
493.094268799,1905.05
493.382202148,1951.825
493.670074463,2083.625
493.957885742,1911.8
494.245727539,1912.425
494.533508301,2096.025
494.821289062,1963.525
495.109100342,1801.125
495.396850586,1741.65
495.684539795,1697.55
495.972290039,1936.05
496.25994873,2321.875
496.547607422,2310.625
496.835296631,2124.8
497.122894287,1768.325
497.410522461,1694.55
497.6980896,1688.225
497.985687256,1662.2
498.273223877,1773.475
498.560760498,1852.175
498.848266602,1868.75
499.135772705,1843.65
499.423217773,1887.15
499.710693359,2009.525
499.998138428,1938.5
500.285522461,1757.65
500.572937012,1660.85
500.860290527,1729.5
501.147644043,1847.625
501.434997559,2093.25
501.722290039,1948.525
502.00958252,1693.625
502.296875,1979.475
502.584106445,1970.075
502.871337891,1771.075
503.158599854,1860.9
503.445770264,1935.35
503.732910156,1922.425
504.020141602,1712.075
504.307220459,1691.975
504.594329834,1725.575
504.881469727,1660.05
505.168518066,1741.55
505.455535889,1807.675
505.742614746,1674.025
506.029632568,1601.575
506.316589355,1818.4
506.603637695,1903.1
506.890563965,1695.075
507.177459717,1505.9
507.464385986,1425.425
507.751312256,1670.0
508.038146973,1763.875
508.325012207,1608.9
508.611877441,1671.375
508.898681641,1684.5
509.185424805,1501.35
509.472259521,1467.475
509.759002686,1565.975
510.045715332,1581.2
510.332458496,1528.075
510.619140625,1595.575
510.905761719,1496.05
511.192504883,1493.925
511.479095459,1546.575
511.765686035,1489.75
512.052307129,1396.425
512.338928223,1338.775
512.625427246,1398.375
512.91204834,1459.775
513.198486328,1443.35
513.484985352,1407.4
513.77142334,1321.825
514.057922363,1373.375
514.344299316,1369.925
514.63079834,1333.975
514.917175293,1315.775
515.203552246,1216.075
515.489868164,1192.9
515.776245117,1318.0
516.0625,1366.975
516.348815918,1262.3
516.635070801,1303.5
516.921325684,1364.25
517.207580566,1300.65
517.493774414,1187.65
517.779968262,1200.3
518.066101074,1245.5
518.352294922,1186.4
518.638366699,1201.55
518.924499512,1287.725
519.210632324,1367.9
519.496643066,1334.375
519.782714844,1207.675
520.068786621,1178.05
520.354736328,1138.625
520.640686035,1086.175
520.926757812,1137.85
521.212646484,1227.0
521.498535156,1238.7
521.784484863,1173.525
522.0703125,1106.025
522.356262207,1126.85
522.642089844,1195.75
522.927856445,1198.35
523.213684082,1190.275
523.499511719,1178.8
523.78527832,1221.75
524.070983887,1287.1
524.356750488,1255.6
524.64239502,1214.15
524.928039551,1203.0
525.213806152,1215.825
525.499389648,1209.8
525.784973145,1238.325
526.070617676,1296.0
526.356140137,1257.2
526.641723633,1256.7
526.927307129,1323.7
527.212768555,1338.75
527.498291016,1310.125
527.783752441,1311.775
528.069213867,1294.525
528.354675293,1316.825
528.640014648,1498.6
528.925476074,1570.775
529.21081543,1489.975
529.496154785,1462.125
529.781555176,1430.4
530.066833496,1448.2
530.352050781,1470.425
530.637390137,1440.55
530.922607422,1441.25
531.207824707,1432.0
531.493041992,1421.325
531.778198242,1499.75
532.063354492,1480.475
532.348571777,1419.275
532.633666992,1438.4
532.918762207,1523.725
533.203857422,1625.05
533.488891602,1658.3
533.773925781,1592.575
534.059020996,1558.925
534.343933105,1579.125
534.628967285,1557.25
534.91394043,1583.375
535.198852539,1592.5
535.483703613,1567.9
535.768676758,1504.575
536.053527832,1506.275
536.338317871,1455.125
536.62322998,1394.0
536.90802002,1373.8
537.192810059,1383.75
537.477539062,1473.725
537.762329102,1524.575
538.047058105,1556.9
538.331726074,1587.925
538.616455078,1591.95
538.901123047,1562.7
539.18572998,1616.85
539.470397949,1612.475
539.755004883,1600.1
540.039550781,1563.1
540.32409668,1514.225
540.608703613,1546.125
540.893188477,1662.325
541.17767334,1674.4
541.462158203,1700.625
541.746643066,1619.15
542.031066895,1663.35
542.315429688,1730.175
542.59979248,1709.025
542.884216309,1689.925
543.168579102,1689.475
543.452941895,1685.925
543.737243652,1758.475
544.021484375,1815.375
544.305725098,1795.6
544.590026855,1774.3
544.874267578,1782.125
545.158447266,1849.7
545.442626953,1749.825
545.726806641,1653.075
546.010925293,1681.75
546.29510498,1727.45
546.579162598,1704.9
546.863220215,1747.725
547.147277832,1832.925
547.431335449,1910.325
547.715332031,1991.15
547.999328613,2115.875
548.283325195,2118.85
548.567260742,1957.45
548.851135254,1920.775
549.135070801,1890.825
549.419006348,1793.25
549.702819824,1894.5
549.986755371,1967.05
550.270507812,1949.1
550.554321289,1996.525
550.83807373,2002.475
551.121826172,1957.2
551.405517578,1967.15
551.689331055,2098.025
551.973022461,2351.45
552.256652832,2419.1
552.540344238,2295.675
552.823974609,2275.275
553.107543945,2267.575
553.391174316,2332.175
553.674743652,2385.175
553.958251953,2392.425
554.241821289,2422.7
554.525268555,2328.875
554.808776855,2341.25
555.092285156,2544.3
555.375671387,2644.225
555.659057617,2624.1
555.942504883,2669.575
556.225891113,2705.425
556.509216309,2661.25
556.792541504,2566.175
557.075866699,2631.275
557.359130859,2693.5
557.64239502,2690.075
557.92565918,2760.5
558.208862305,2743.15
558.49206543,2669.95
558.77532959,2687.65
559.058410645,2739.575
559.341552734,2731.825
559.624694824,2768.6
559.907775879,2879.0
560.190856934,3002.8
560.473937988,3000.225
560.756896973,3026.5
561.039978027,3087.075
561.322937012,3020.45
561.605895996,3021.65
561.88885498,2992.0
562.171813965,2993.725
562.454650879,2965.4
562.737548828,3009.4
563.020446777,3091.15
563.303283691,3090.65
563.58605957,3138.55
563.868896484,3157.9
564.151672363,3220.325
564.434387207,3246.85
564.717163086,3219.625
564.99987793,3257.75
565.282531738,3326.625
565.565185547,3267.325
565.847839355,3270.1
566.130432129,3403.625
566.413085938,3368.875
566.695678711,3394.125
566.978149414,3514.15
567.260681152,3667.725
567.543273926,3747.825
567.825744629,3639.05
568.108154297,3698.825
568.390686035,3833.775
568.673095703,3966.65
568.955505371,4015.6
569.237854004,4061.625
569.520202637,4350.05
569.802490234,4576.25
570.084838867,4545.55
570.367126465,4355.825
570.649414062,4386.85
570.93170166,4790.575
571.213928223,4844.725
571.496154785,4584.825
571.778381348,4819.65
572.06048584,5107.45
572.342590332,4616.65
572.624755859,4216.35
572.906860352,4299.325
573.188903809,5051.275
573.470947266,5314.4
573.752990723,5046.35
574.03503418,5177.55
574.317016602,5587.8
574.598937988,5343.3
574.88092041,5227.0
575.162841797,5423.975
575.444763184,5011.5
575.726623535,4726.05
576.008483887,4755.95
576.290344238,5208.075
576.572143555,5422.525
576.853881836,5504.8
577.135681152,5405.175
577.417419434,5474.85
577.699157715,6413.975
577.980895996,6590.325
578.262573242,5866.825
578.544128418,5362.425
578.825866699,5268.25
579.107421875,4940.725
579.388977051,5113.175
579.670593262,5584.9
579.952148438,5387.175
580.233642578,5512.725
580.515197754,5630.25
580.796691895,5283.4
581.078125,5486.85
581.359619141,7148.125
581.640991211,7222.6
581.922363281,6242.85
582.203796387,6331.575
582.485107422,5912.725
582.766418457,5488.075
583.047790527,5304.6
583.329040527,5185.3
583.610290527,5054.775
583.891540527,5150.175
584.172790527,5512.05
584.453918457,5515.025
584.735107422,5589.3
585.016235352,6101.675
585.297363281,6036.2
585.578552246,5806.4
585.859619141,5776.35
586.140625,5489.45
586.421630859,5361.05
586.702697754,5388.1
586.983642578,5641.975
587.264648438,5818.225
587.545654297,5769.175
587.826477051,5695.4
588.107421875,5492.1
588.388305664,5526.95
588.669189453,5625.025
588.950012207,5480.175
589.230834961,5353.575
589.511657715,5449.675
589.792358398,5569.05
590.073120117,5565.975
590.353881836,5537.65
590.63458252,5555.0
590.915283203,5492.275
591.195922852,5508.175
591.4765625,5537.425
591.757202148,5601.55
592.037780762,5590.475
592.31829834,5590.95
592.598937988,5807.5
592.879394531,6010.85
593.159912109,5887.825
593.440429688,5847.375
593.720825195,5805.925
594.001281738,5773.225
594.281677246,5691.475
594.562072754,5705.575
594.842407227,5794.625
595.122802734,5850.125
595.403137207,5823.825
595.683410645,5818.7
595.963623047,5797.725
596.243896484,5738.75
596.524169922,5741.175
596.804382324,5738.85
597.084533691,5773.55
597.364746094,5839.725
597.644836426,5840.725
597.924987793,5838.475
598.205078125,5796.05
598.485107422,5839.925
598.765197754,5946.75
599.045227051,6021.425
599.325195312,5899.075
599.605224609,5847.675
599.885192871,5900.875
600.165100098,5971.95
600.445007324,5880.1
600.724914551,5877.45
601.004760742,5887.35
601.284667969,5919.9
601.56451416,5866.65
601.844238281,5889.125
602.124084473,5908.9
602.403808594,5929.975
602.683532715,5944.175
602.963256836,5931.925
603.242919922,5981.35
603.522583008,6013.2
603.802246094,5963.175
604.081848145,5930.525
604.36138916,5914.825
604.641052246,5959.85
604.920532227,5934.125
605.200073242,5931.525
605.479614258,5943.95
605.759094238,6033.225
606.038574219,6018.15
606.317932129,5973.875
606.597412109,5955.925
606.87677002,5946.675
607.15612793,6013.9
607.435546875,6000.6
607.714782715,6011.05
607.99407959,5967.075
608.273376465,5953.6
608.552612305,5974.075
608.831848145,5982.6
609.111083984,6013.925
609.390258789,5965.525
609.669433594,5960.125
609.948608398,6037.8
610.227722168,6028.375
610.506713867,5942.425
610.785888672,5951.925
611.064880371,5943.65
611.34387207,5955.85
611.622924805,5968.3
611.901916504,5979.6
612.180847168,5913.375
612.459777832,5916.825
612.738647461,5928.65
613.01751709,5893.825
613.296447754,5838.975
613.575317383,5791.975
613.854064941,5733.025
614.132873535,5639.075
614.411621094,5575.0
614.690368652,5545.925
614.969177246,5497.675
615.247802734,5392.325
615.526489258,5384.05
615.805175781,5265.275
616.08380127,5146.175
616.362365723,5056.85
616.640991211,5015.8
616.919555664,4948.875
617.198059082,5060.825
617.4765625,5372.175
617.755126953,5527.325
618.033569336,5547.95
618.311950684,5546.075
618.590454102,5529.125
618.868774414,5509.1
619.147155762,5523.95
619.425598145,5492.35
619.703857422,5531.225
619.982177734,5531.55
620.260498047,5514.55
620.538757324,5508.325
620.816955566,5464.65
621.095214844,5422.15
621.373413086,5437.075
621.651550293,5502.775
621.929748535,5533.8
622.207824707,5510.45
622.485900879,5514.75
622.764038086,5519.225
623.042053223,5574.0
623.320007324,5616.425
623.598083496,5578.625
623.876037598,5553.35
624.153991699,5587.075
624.432006836,5619.35
624.709838867,5627.35
624.987731934,5601.35
625.265563965,5593.825
625.543395996,5609.075
625.821228027,5669.075
626.098999023,5661.65
626.376831055,5719.0
626.654541016,5730.85
626.932250977,5756.45
627.209960938,5802.6
627.487670898,5844.15
627.765319824,5842.225
628.04296875,5854.05
628.320495605,5878.425
628.598083496,5865.275
628.875671387,5893.725
629.153259277,5931.65
629.430725098,5996.675
629.708251953,5983.0
629.985656738,5991.7
630.263122559,6062.35
630.540588379,6081.525
630.817932129,6109.75
631.095275879,6123.075
631.372680664,6183.125
631.649963379,6196.125
631.927246094,6285.525
632.204589844,6295.025
632.481811523,6379.425
632.759033203,6469.175
633.036254883,6453.55
633.313415527,6569.0
633.590576172,6611.95
633.867736816,6721.575
634.144836426,6781.95
634.421875,6833.175
634.698913574,6918.85
634.976013184,6957.775
635.252990723,7016.925
635.529968262,7064.45
635.807006836,7164.875
636.08392334,7138.5
636.360839844,7020.725
636.637756348,6928.325
636.914611816,6916.4
637.191467285,6881.925
637.468261719,6963.65
637.745056152,6929.675
638.021789551,6970.35
638.298583984,6974.7
638.575317383,7023.05
638.851989746,7021.45
639.12878418,7016.725
639.405395508,7011.325
639.682006836,7041.525
639.958618164,7051.275
640.235229492,7027.6
640.511779785,7099.125
640.788330078,7063.375
641.064880371,7062.975
641.341308594,7031.7
641.617797852,7032.05
641.894226074,7050.7
642.170654297,7052.575
642.44708252,7069.725
642.723388672,7057.65
642.999755859,7029.7
643.276123047,7069.1
643.552429199,7033.525
643.828674316,7049.625
644.104919434,7040.025
644.381164551,7007.75
644.657348633,7029.125
644.933532715,6991.7
645.209716797,7027.275
645.485839844,7010.725
645.761901855,7023.775
646.038024902,6989.5
646.314086914,7027.275
646.590087891,6994.5
646.866149902,7055.9
647.142150879,6992.475
647.41809082,6961.175
647.694030762,6988.475
647.969970703,6979.275
648.245788574,7004.525
648.521728516,6980.125
648.797546387,6971.1
649.073303223,7017.275
649.349182129,6990.275
649.624938965,6970.575
649.900634766,6972.475
650.176391602,6973.175
650.452087402,6974.525
650.727783203,6950.0
651.003479004,6953.025
651.279052734,6926.775
651.554626465,6947.7
651.83026123,6926.025
652.105773926,6965.575
652.381286621,6922.25
652.656860352,6937.925
652.932312012,6940.6
653.207763672,6950.75
653.483215332,6994.925
653.758605957,6967.275
654.033935547,6982.65
654.309326172,6999.35
654.584716797,7004.1
654.859985352,6993.125
655.135253906,7023.1
655.410583496,7027.75
655.685791016,8109.225
655.9609375,12587.3
656.236206055,12289.05
656.511291504,8168.25
656.786437988,7191.825
657.061645508,7077.05
657.336669922,7064.6
657.611694336,7112.3
657.886779785,7142.4
658.161804199,7137.25
658.436828613,7113.0
658.711791992,7125.85
658.986755371,7184.475
659.261657715,7158.6
659.536621094,7179.65
659.811401367,7165.875
660.086303711,7223.7
660.36114502,7201.225
660.635864258,7195.275
660.910644531,7244.375
661.185424805,7234.9
661.460205078,7253.7
661.734863281,7256.4
662.009521484,7253.3
662.284179688,7258.45
662.558776855,7289.425
662.833435059,7317.425
663.108032227,7355.1
663.382568359,7338.7
663.657043457,7391.525
663.93157959,7388.75
664.206054688,7383.35
664.48046875,7443.5
664.755004883,7468.35
665.02935791,7467.975
665.303710938,7490.6
665.578125,7528.45
665.852416992,7523.3
666.126708984,7529.6
666.401062012,7528.775
666.675292969,7585.75
666.949462891,7585.575
667.223754883,7589.975
667.497924805,7626.875
667.772094727,7625.775
668.046264648,7610.95
668.3203125,7687.75
668.594421387,7717.875
668.868469238,7689.675
669.14251709,7740.35
669.416503906,7745.625
669.690551758,7778.75
669.964477539,7809.45
670.23840332,7774.0
670.512329102,7803.925
670.786254883,7751.6
671.060058594,7837.325
671.333984375,7862.75
671.607788086,7887.95
671.881530762,7849.975
672.155334473,7912.1
672.429077148,7905.175
672.702758789,7956.2
672.97644043,7921.925
673.25012207,7947.45
673.523742676,7922.125
673.797302246,7946.2
674.070922852,8013.375
674.344482422,8025.375
674.618041992,8005.45
674.891601562,8011.825
675.165100098,8043.35
675.438476562,8050.55
675.711975098,8075.825
675.985412598,8047.7
676.258789062,8068.775
676.532165527,8110.975
676.805480957,8109.1
677.078796387,8138.125
677.352111816,8134.475
677.625366211,8142.25
677.898620605,8133.8
678.171875,8214.15
678.445007324,8187.825
678.718200684,8226.575
678.991394043,8226.725
679.264404297,8237.175
679.537536621,8240.475
679.81060791,8268.875
680.083679199,8274.925
680.356689453,8271.5
680.629699707,8303.15
680.902648926,8262.7
681.175598145,8320.525
681.448547363,8360.95
681.721435547,8318.05
681.99420166,8334.4
682.267150879,8346.025
682.539916992,8398.3
682.812744141,8352.15
683.085510254,8339.25
683.358215332,8377.7
683.63092041,8363.9
683.903625488,8382.775
684.176330566,8353.825
684.448913574,8347.725
684.721557617,8327.125
684.99420166,8437.825
685.266662598,8407.1
685.539245605,8433.25
685.811767578,8488.9
686.084289551,8505.8
686.356689453,8508.525
686.629150391,8524.175
686.901550293,8574.875
687.17401123,8570.325
687.446350098,8613.05
687.718688965,8633.9
687.990966797,8644.425
688.263305664,8654.675
688.535522461,8652.05
688.807739258,8656.0
689.079956055,8714.875
689.352172852,8736.95
689.624328613,8715.55
689.896484375,8788.075
690.168518066,8774.325
690.440612793,8804.825
690.71270752,8797.6
690.984741211,8803.95
691.256713867,8850.175
691.528747559,8831.325
691.800720215,8869.275
692.072631836,8875.7
692.344543457,8905.375
692.616394043,8929.275
692.888244629,8963.525
693.160095215,8991.2
693.431945801,9034.675
693.703674316,8970.175
693.975463867,8970.75
694.247131348,9047.225
694.518859863,9039.45
694.790588379,9054.475
695.062255859,9049.4
695.33380127,9054.35
695.60546875,9044.8
695.87701416,9101.1
696.148498535,9115.775
696.42010498,9140.975
696.691589355,9154.275
696.96307373,9189.925
697.234558105,9258.7
697.50592041,9215.125
697.777282715,9232.675
698.048706055,9239.625
698.320068359,9285.1
698.591308594,9244.45
698.862670898,9276.625
699.133972168,9342.025
699.405151367,9290.3
699.676391602,9367.45
699.947570801,9337.85
700.21875,9369.45
700.489868164,9364.325
700.761047363,9382.225
701.032104492,9430.075
701.303100586,9364.3
701.57421875,9422.475
701.845214844,9421.7
702.116149902,9427.075
702.387207031,9453.725
702.65814209,9470.025
702.928955078,9509.35
703.199951172,9470.925
703.47076416,9461.75
703.741577148,9459.9
704.012451172,9523.425
704.28314209,9526.225
704.553955078,9518.675
704.824707031,9591.9
705.095397949,9579.525
705.366027832,9596.25
705.63671875,9632.175
705.907348633,9579.475
706.17791748,9603.7
706.448486328,9646.075
706.719055176,9648.725
706.989562988,9665.825
707.260131836,9702.075
707.530517578,9723.55
707.800964355,9715.075
708.071411133,9659.625
708.341796875,9677.2
708.612182617,9668.575
708.882446289,9660.175
709.152893066,9682.55
709.423156738,9737.175
709.693359375,9690.85
709.963623047,9707.45
710.233825684,9755.775
710.503967285,9690.875
710.774169922,9733.875
711.044311523,9733.35
711.31439209,9719.225
711.584533691,9746.125
711.854553223,9769.75
712.124572754,9776.05
712.39465332,9710.7
712.664611816,9777.1
712.934509277,9861.125
713.204467773,9789.2
713.474365234,9843.725
713.74420166,9830.25
714.014099121,9861.2
714.283874512,9852.4
714.553710938,9910.8
714.823486328,9868.2
715.093200684,9836.8
715.362915039,9882.7
715.632629395,9875.075
715.902282715,9850.1
716.171875,9822.85
716.441589355,9841.075
716.711181641,9813.225
716.980712891,9831.625
717.250244141,9837.6
717.519775391,9814.1
717.78918457,9853.25
718.058654785,9916.425
718.328125,9953.325
718.597473145,9877.1
718.866882324,9887.375
719.136230469,9909.55
719.405578613,9927.225
719.674865723,9951.725
719.944152832,9911.65
720.213439941,9914.475
720.48260498,9965.2
720.75177002,9962.95
721.020996094,9928.15
721.290100098,9949.55
721.559204102,9896.525
721.828308105,9979.5
722.097351074,10011.35
722.366455078,9977.65
722.635437012,9953.925
722.904418945,9931.175
723.173400879,9959.525
723.442321777,9964.775
723.711181641,9947.425
723.980102539,9986.775
724.248962402,10000.525
724.51776123,9965.9
724.786560059,10003.55
725.055358887,9979.375
725.324035645,9972.075
725.592834473,10012.9
725.86151123,9934.65
726.130187988,9932.75
726.398803711,9898.225
726.667419434,9925.4
726.935974121,9927.175
727.204528809,9882.95
727.473083496,9902.075
727.741638184,9876.25
728.010070801,9823.9
728.278564453,9863.475
728.546936035,9896.425
728.815368652,9798.275
729.08380127,9718.425
729.352111816,9669.05
729.620361328,9618.35
729.88873291,9644.1
730.156982422,9724.15
730.425231934,9739.125
730.693481445,9718.825
730.961669922,9781.75
731.229797363,9843.025
731.49798584,9842.4
731.766113281,9914.575
732.034118652,9990.375
732.302246094,10029.175
732.570251465,10078.25
732.838256836,10102.575
733.106262207,10228.325
733.374145508,10231.675
733.642089844,10274.825
733.909973145,10300.25
734.177856445,10424.3
734.445678711,10539.625
734.713562012,10631.225
734.981323242,10614.75
735.249084473,10661.375
735.516845703,10865.425
735.784545898,10940.675
736.052185059,10966.1
736.319885254,11054.625
736.587524414,11158.325
736.855102539,11231.9
737.122619629,11353.8
737.390197754,11365.825
737.657714844,11513.575
737.925170898,11580.2
738.192749023,11706.475
738.460144043,11755.425
738.727539062,11803.35
738.994995117,11966.75
739.262329102,12031.125
739.529663086,12125.6
739.79699707,12131.075
740.06427002,12252.725
740.331481934,12327.45
740.598754883,12393.025
740.865905762,12423.0
741.133056641,12607.3
741.40032959,12608.95
741.667358398,12681.775
741.934448242,12730.925
742.201599121,12749.65
742.468566895,12879.65
742.735534668,12926.5
743.002563477,12963.925
743.26953125,12943.3
743.536437988,13052.575
743.803405762,13173.3
744.0703125,13090.4
744.337097168,13220.85
744.604003906,13119.6
744.870727539,13214.175
745.137512207,13269.0
745.40423584,13286.95
745.670959473,13246.175
745.93762207,13296.85
746.204284668,13304.65
746.470947266,13341.5
746.737548828,13331.225
747.004089355,13357.7
747.270751953,13369.725
747.53717041,13400.975
747.803710938,13311.725
748.070251465,13312.6
748.336608887,13296.775
748.603027344,13291.375
748.869445801,13310.675
749.135803223,13303.25
749.402099609,13329.675
749.668457031,13335.075
749.934753418,13288.3
750.20098877,13239.725
750.467224121,13300.1
750.733459473,13280.175
750.999572754,13243.4
751.26574707,13149.35
751.531860352,13197.1
751.797912598,13149.05
752.064025879,13091.45
752.330078125,13119.025
752.596069336,13059.525
752.862060547,13021.5
753.127990723,13049.925
753.393920898,12984.3
753.659912109,12974.975
753.925720215,13004.775
754.19152832,12938.2
754.457397461,12877.8
754.723144531,12838.375
754.988952637,12806.875
755.254699707,12797.85
755.520385742,12873.85
755.786071777,12845.9
756.051696777,12835.3
756.317382812,12773.375
756.582946777,12731.175
756.848510742,12757.025
757.114074707,12658.9
757.379577637,12672.175
757.645080566,12764.4
757.910583496,12674.6
758.175964355,12642.025
758.441345215,12581.525
758.706848145,12426.05
758.972106934,12446.0
759.237426758,12443.225
759.502807617,12495.725
759.768005371,12485.45
760.03326416,12422.45
760.298522949,12353.975
760.563659668,12387.9
760.828857422,12381.525
761.093994141,12389.35
761.359130859,12319.875
761.624206543,12264.425
761.889282227,12251.6
762.15423584,12215.475
762.419250488,12234.925
762.684265137,12159.375
762.949157715,12121.875
763.214050293,12112.7
763.479003906,12143.825
763.743835449,12101.45
764.008666992,12038.5
764.2734375,12004.475
764.538208008,12085.35
764.802978516,12092.625
765.067687988,12020.45
765.332397461,12007.875
765.597045898,12021.6
765.861694336,11962.375
766.126342773,11919.55
766.390930176,11881.5
766.655395508,11866.875
766.920043945,11807.525
767.184509277,11819.675
767.448974609,11806.55
767.713439941,11794.2
767.977783203,11745.5
768.2421875,11770.25
768.506591797,11686.825
768.770874023,11811.3
769.03515625,11749.875
769.299499512,11741.45
769.563720703,11742.975
769.827941895,11661.3
770.092163086,11639.75
770.356323242,11637.9
770.620483398,11681.925
770.88458252,11653.075
771.148681641,11660.875
771.412719727,11636.325
771.676757812,11635.725
771.940734863,11564.975
772.204711914,11572.6
772.468688965,11527.3
772.73260498,11536.975
772.996459961,11568.925
773.260314941,10303.025
773.524169922,1309.475
773.787963867,154.925
774.051696777,122.4
774.315551758,118.775
774.579223633,120.5
774.842895508,119.975
775.106567383,119.375
775.370239258,118.875
775.633789062,122.025
775.897399902,123.5
776.160949707,117.625
776.424499512,118.275
776.687988281,123.975
776.951477051,125.075
777.214904785,120.05
777.47833252,122.7
