191.299911499,101.6
191.603515625,103.325
191.907119751,98.375
192.210693359,105.2
192.514251709,98.275
192.817810059,104.05
193.121368408,102.475
193.42489624,103.9
193.728408813,98.125
194.031936646,102.325
194.33543396,95.25
194.638916016,110.75
194.94241333,94.3
195.245880127,95.2
195.549331665,94.175
195.852767944,100.225
196.156204224,172.975
196.459625244,169.4
196.763015747,171.65
197.066436768,180.4
197.369812012,167.95
197.673187256,172.3
197.9765625,165.275
198.279922485,170.25
198.583251953,165.05
198.886581421,169.35
199.18989563,175.35
199.493209839,172.125
199.79649353,165.375
200.09979248,177.775
200.403076172,169.925
200.706314087,171.65
201.009567261,171.4
201.312820435,171.825
201.616027832,166.425
201.919235229,161.3
202.222457886,163.975
202.525634766,165.425
202.828826904,161.575
203.132003784,161.575
203.435150146,163.975
203.738296509,163.125
204.041412354,161.15
204.344558716,171.35
204.647659302,167.875
204.950759888,169.3
205.253845215,170.4
205.556930542,164.025
205.859985352,162.4
206.163024902,165.025
206.466079712,168.175
206.769104004,173.075
207.072113037,165.4
207.375137329,163.725
207.678131104,166.125
207.981109619,168.35
208.284088135,161.575
208.587036133,169.55
208.889984131,167.25
209.19291687,170.25
209.495849609,170.125
209.798751831,168.2
210.101654053,169.55
210.404556274,176.1
210.707427979,167.175
211.010269165,174.625
211.31312561,171.15
211.615982056,171.75
211.918807983,175.95
212.221618652,172.95
212.524429321,167.3
212.827224731,177.225
213.130004883,168.45
213.432769775,174.625
213.735534668,171.275
214.038269043,174.8
214.341003418,173.45
214.643737793,173.45
214.946456909,179.45
215.249145508,180.425
215.551834106,178.8
215.854507446,179.875
216.157165527,179.525
216.45980835,180.3
216.762451172,183.4
217.065078735,182.475
217.36769104,179.425
217.670303345,182.625
217.972885132,185.9
218.275466919,188.125
218.578048706,179.875
218.880599976,192.65
219.183120728,188.45
219.485656738,193.375
219.788192749,200.05
220.090682983,211.475
220.393188477,229.85
220.695663452,247.7
220.998138428,268.525
221.300582886,295.025
221.603042603,317.7
221.905487061,354.975
222.207901001,396.25
222.510299683,437.175
222.812728882,477.45
223.115097046,539.0
223.41746521,594.925
223.719848633,635.55
224.022171021,693.825
224.324508667,753.775
224.626846313,819.975
224.929168701,864.95
225.231460571,931.05
225.533737183,982.0
225.836013794,1039.925
226.138290405,1089.25
226.440536499,1145.4
226.742767334,1184.625
227.044998169,1221.425
227.347213745,1289.0
227.649429321,1315.95
227.951629639,1350.975
228.253799438,1383.9
228.555953979,1411.5
228.858123779,1452.825
229.160263062,1463.525
229.462371826,1490.925
229.764511108,1505.65
230.066619873,1536.85
230.36869812,1539.25
230.670776367,1568.725
230.972854614,1577.1
231.274902344,1601.725
231.576950073,1643.725
231.878967285,1645.925
232.180999756,1670.075
232.48298645,1687.875
232.784988403,1698.55
233.086975098,1722.2
233.388946533,1737.55
233.69090271,1769.525
233.992858887,1796.4
234.294769287,1785.525
234.596694946,1796.1
234.898605347,1803.3
235.200500488,1827.3
235.502380371,1830.45
235.804244995,1812.525
236.106109619,1805.425
236.407958984,1817.675
236.709777832,1825.025
237.011581421,1836.575
237.313400269,1810.725
237.615203857,1812.95
237.916976929,1807.025
238.21875,1823.3
238.520507812,1807.825
238.822250366,1803.3
239.12399292,1816.8
239.425704956,1813.775
239.727401733,1791.725
240.02911377,1810.175
240.330780029,1803.675
240.632446289,1805.65
240.93409729,1793.775
241.23576355,1796.025
241.537384033,1790.75
241.839004517,1795.575
242.140594482,1812.2
242.442199707,1823.375
242.743774414,1821.825
243.045333862,1820.275
243.346923828,1829.75
243.648452759,1830.2
243.949966431,1823.55
244.251495361,1839.325
244.552993774,1821.9
244.854492188,1820.375
245.155975342,1815.425
245.457443237,1841.225
245.758880615,1831.0
246.060333252,1831.8
246.36177063,1814.275
246.66317749,1810.125
246.964569092,1788.15
247.265945435,1809.875
247.567337036,1809.05
247.86869812,1814.4
248.170059204,1821.45
248.471389771,1823.6
248.772705078,1834.125
249.074035645,1855.675
249.375335693,1865.05
249.676620483,1877.675
249.977890015,1887.275
250.279159546,1915.725
250.58039856,1932.475
250.881637573,1949.525
251.182876587,1990.7
251.484069824,2019.425
251.785263062,2053.8
252.086456299,2102.325
252.387619019,2118.025
252.688781738,2162.775
252.989929199,2200.1
253.291061401,2241.025
253.592178345,2264.4
253.893280029,2293.05
254.194366455,2338.275
254.49546814,2368.65
254.796524048,2386.875
255.097579956,2461.15
255.398620605,2450.575
255.699645996,2524.975
256.000640869,2520.55
256.30166626,2555.05
256.602661133,2603.7
256.903656006,2602.475
257.204589844,2634.8
257.505523682,2646.75
257.80645752,2708.475
258.107391357,2701.9
258.408294678,2698.125
258.709228516,2724.775
259.010070801,2732.8
259.310943604,2749.975
259.611846924,2759.225
259.912658691,2745.65
260.213500977,2769.875
260.514343262,2750.4
260.815124512,2756.35
261.115936279,2776.8
261.416717529,2784.625
261.717468262,2781.825
262.018218994,2784.075
262.318969727,2817.35
262.619689941,2841.45
262.920410156,2889.425
263.221130371,2932.825
263.521789551,2950.425
263.822479248,2998.5
264.123138428,3050.45
264.42376709,3079.45
264.72442627,3096.8
265.025054932,3118.775
265.325622559,3144.2
265.626251221,3157.1
265.926818848,3176.15
266.227386475,3161.5
266.527954102,3171.35
266.828460693,3191.75
267.12902832,3175.825
267.429534912,3165.75
267.730010986,3145.075
268.030517578,3143.025
268.330993652,3141.625
268.631439209,3128.425
268.931915283,3162.725
269.232299805,3143.775
269.532745361,3158.85
269.8331604,3146.125
270.133544922,3143.925
270.433929443,3180.925
270.734313965,3179.375
271.034637451,3191.375
271.334991455,3198.0
271.635314941,3225.975
271.935638428,3253.65
272.235931396,3298.7
272.536254883,3351.875
272.836486816,3395.05
273.136749268,3445.15
273.437011719,3529.3
273.737213135,3581.925
274.037445068,3669.85
274.337677002,3735.475
274.6378479,3815.9
274.938049316,3895.975
275.238220215,3986.4
275.538360596,4061.95
275.838500977,4136.7
276.138641357,4259.675
276.438751221,4291.85
276.738830566,4368.15
277.03894043,4421.875
277.338989258,4557.55
277.639038086,4625.3
277.939056396,4690.625
278.239105225,4725.75
278.539093018,4813.175
278.839141846,4875.95
279.139129639,4936.8
279.439086914,5033.05
279.739044189,5062.25
280.039001465,5148.325
280.338928223,5178.775
280.63885498,5253.65
280.938781738,5309.975
281.238647461,5341.675
281.538513184,5385.675
281.838409424,5420.725
282.138244629,5491.1
282.438079834,5520.075
282.737945557,5562.225
283.037719727,5612.4
283.337524414,5650.7
283.637298584,5683.65
283.937072754,5709.3
284.236816406,5729.7
284.536560059,5748.5
284.836303711,5770.15
285.136016846,5856.025
285.43572998,5869.675
285.735412598,5887.15
286.035064697,5899.925
286.334747314,5952.55
286.634368896,5999.975
286.933990479,5967.625
287.233642578,5956.2
287.533203125,5970.4
287.832824707,5925.0
288.132385254,5869.525
288.431945801,5791.7
288.731506348,5708.725
289.031036377,5610.7
289.330566406,5525.2
289.630065918,5509.6
289.92956543,5517.325
290.229034424,5617.725
290.528503418,5740.8
290.827941895,5890.9
291.127380371,6003.15
291.42678833,6129.5
291.726226807,6244.375
292.025604248,6273.275
292.324981689,6321.85
292.624359131,6338.85
292.923736572,6366.275
293.223052979,6391.075
293.522369385,6389.4
293.821685791,6385.9
294.12097168,6370.825
294.420257568,6356.725
294.719543457,6353.125
295.018768311,6336.9
295.318023682,6316.725
295.617248535,6257.375
295.916442871,6243.9
296.215667725,6189.075
296.514862061,6090.825
296.813995361,5935.925
297.11315918,5761.9
297.412322998,5678.025
297.711425781,5653.025
298.010559082,5805.5
298.309631348,5948.575
298.608734131,6142.825
298.907806396,6300.2
299.206848145,6431.075
299.505889893,6478.5
299.804901123,6557.175
300.103912354,6653.45
300.402954102,6718.475
300.701904297,6767.75
301.00088501,6826.425
301.299835205,6882.475
301.5987854,6925.675
301.897735596,6976.5
302.196624756,7011.7
302.495513916,7112.75
302.794403076,7111.8
303.093292236,7182.45
303.392120361,7232.075
303.690979004,7304.075
303.989837646,7344.85
304.288604736,7367.9
304.587402344,7374.45
304.886199951,7428.95
305.184967041,7463.2
305.483734131,7500.45
305.782501221,7526.45
306.081176758,7556.875
306.37991333,7577.125
306.678619385,7586.125
306.977294922,7576.275
307.275970459,7600.775
307.574645996,7616.425
307.873260498,7602.85
308.171875,7636.825
308.470489502,7609.275
308.769104004,7551.625
309.067687988,7577.825
309.366241455,7554.1
309.664794922,7496.8
309.963348389,7530.225
310.261871338,7541.525
310.560394287,7561.3
310.858856201,7588.725
311.157348633,7605.125
311.455810547,7596.25
311.754272461,7639.4
312.052703857,7673.3
312.351135254,7691.25
312.649536133,7716.375
312.947937012,7677.175
313.246307373,7737.775
313.544647217,7719.4
313.843017578,7670.2
314.141387939,7636.15
314.439697266,7683.525
314.738006592,7594.25
315.036315918,7562.6
315.334564209,7486.525
315.6328125,7458.75
315.931091309,7398.825
316.229309082,7289.975
316.527526855,7168.7
316.825744629,7151.125
317.123901367,7084.75
317.422088623,7013.8
317.720245361,7021.55
318.0184021,7051.7
318.316497803,7071.575
318.614654541,7125.475
318.912750244,7197.75
319.21081543,7168.375
319.50894165,7207.025
319.806945801,7211.475
320.104980469,7195.625
320.403045654,7190.925
320.701049805,7197.875
320.999023438,7171.025
321.297027588,7111.95
321.595001221,7097.05
321.892913818,7082.55
322.190887451,7022.25
322.488830566,6956.925
322.786712646,6935.8
323.084625244,6855.05
323.382507324,6857.0
323.680358887,6777.775
323.978210449,6731.9
324.276062012,6662.675
324.573852539,6634.15
324.871643066,6590.525
325.169464111,6536.925
325.467224121,6477.65
325.764984131,6405.7
326.062744141,6345.55
326.360473633,6293.975
326.658203125,6248.25
326.955871582,6158.6
327.253570557,6115.85
327.551239014,6087.45
327.848907471,6020.475
328.146514893,5966.275
328.444152832,5916.275
328.741790771,5872.8
329.039367676,5838.725
329.336914062,5752.0
329.634521484,5709.25
329.932067871,5678.475
330.229553223,5616.575
330.527160645,5569.7
330.824615479,5523.975
331.12210083,5455.925
331.419586182,5381.775
331.717041016,5315.2
332.014465332,5249.95
332.311920166,5235.075
332.609313965,5191.225
332.906707764,5182.475
333.204101562,5147.65
333.501495361,5189.55
333.798828125,5219.175
334.096160889,5251.5
334.39352417,5289.025
334.690795898,5332.175
334.988098145,5371.975
335.285400391,5408.225
335.582641602,5425.8
335.879882812,5491.375
336.177124023,5473.15
336.474334717,5537.1
336.77154541,5549.025
337.068725586,5543.15
337.365905762,5551.75
337.66305542,5566.3
337.960205078,5599.925
338.257324219,5592.875
338.554443359,5616.875
338.8515625,5622.7
339.148590088,5628.225
339.445648193,5639.625
339.742736816,5605.025
340.039764404,5613.175
340.336761475,5562.4
340.63381958,5515.2
340.930755615,5501.775
341.227722168,5438.8
341.524688721,5346.225
341.821624756,5314.7
342.118560791,5339.475
342.415496826,5424.1
342.712402344,5519.275
343.009246826,5674.9
343.306121826,5753.3
343.602966309,5808.4
343.899810791,5903.25
344.196624756,5935.025
344.493438721,5962.725
344.79019165,6005.075
345.086975098,6047.725
345.383758545,6095.275
345.680480957,6071.9
345.977203369,6091.55
346.273956299,6142.025
346.570617676,6135.7
346.86730957,6154.125
347.163970947,6138.275
347.460601807,6169.65
347.757232666,6184.0
348.053894043,6159.625
348.350463867,6088.825
348.647064209,6072.925
348.943634033,6091.725
349.24017334,6097.075
349.536712646,6053.075
349.833251953,6056.75
350.129760742,6011.875
350.426208496,6036.45
350.722747803,5997.925
351.019195557,5985.725
351.315612793,5947.075
351.612060547,5921.5
351.908508301,5879.35
352.204864502,5834.225
352.501281738,5798.925
352.797637939,5718.4
353.093963623,5641.55
353.390319824,5596.875
353.686645508,5518.25
353.982940674,5469.45
354.27923584,5435.175
354.575531006,5397.3
354.871765137,5367.225
355.167999268,5341.975
355.464233398,5339.45
355.760437012,5353.55
356.056640625,5385.1
356.352813721,5377.625
356.648956299,5364.65
356.945129395,5402.175
357.241271973,5395.225
357.537384033,5404.35
357.833496094,5351.875
358.129577637,5338.225
358.425628662,5316.175
358.721679688,5314.45
359.017730713,5292.575
359.313720703,5240.8
359.609710693,5217.675
359.905761719,5177.0
360.201721191,5139.8
360.497650146,5086.75
360.793609619,5045.9
361.089538574,4986.1
361.385437012,4919.325
361.681365967,4903.8
361.977233887,4840.45
362.273071289,4822.825
362.568908691,4696.925
362.864746094,4598.225
363.160552979,4508.55
363.456359863,4347.525
363.752166748,4215.85
364.047912598,4154.0
364.343658447,4116.7
364.639434814,4160.8
364.935119629,4187.275
365.230834961,4226.725
365.526550293,4276.2
365.822174072,4290.525
366.117858887,4294.075
366.413482666,4334.075
366.709075928,4365.2
367.004730225,4267.425
367.300292969,4253.3
367.595855713,4300.05
367.891448975,4227.025
368.186981201,4136.25
368.482513428,4091.65
368.778015137,4074.25
369.073547363,4038.675
369.36895752,4056.225
369.664428711,3976.775
369.95993042,3885.9
370.255310059,3852.975
370.550720215,3799.05
370.846160889,3766.625
371.14151001,3749.55
371.436859131,3720.425
371.73223877,3707.275
372.027557373,3677.4
372.322875977,3617.1
372.618164062,3610.65
372.913482666,3560.175
373.208709717,3564.025
373.503967285,3512.2
373.799194336,3465.575
374.094421387,3474.65
374.389648438,3439.95
374.684844971,3438.45
374.979980469,3470.75
375.275146484,3493.525
375.570281982,3504.925
375.865386963,3515.825
376.160522461,3462.575
376.455596924,3475.725
376.750640869,3553.8
377.045715332,3579.325
377.340759277,3594.125
377.635772705,3641.575
377.93081665,3663.975
378.225769043,3728.25
378.520751953,3797.95
378.815734863,3749.325
379.110656738,3888.625
379.405548096,4038.825
379.700500488,3909.175
379.995391846,3713.55
380.290252686,3759.65
380.585083008,3859.275
380.879974365,3897.15
381.17477417,3814.475
381.469543457,3765.45
381.764404297,3746.875
382.059143066,3792.125
382.353912354,3854.675
382.648651123,3944.2
382.943389893,3918.85
383.238067627,3796.475
383.532775879,3775.2
383.827484131,3717.15
384.12210083,3736.325
384.416778564,3692.7
384.711425781,3587.325
385.006011963,3629.575
385.300628662,3610.2
385.595184326,3675.225
385.88973999,3764.225
386.184295654,3845.3
386.478820801,3912.525
386.77331543,4000.425
387.067840576,4090.5
387.362335205,4183.0
387.656768799,4249.275
387.951202393,4268.575
388.245635986,4345.975
388.540039062,4411.35
388.834472656,4460.475
389.128875732,4374.425
389.423187256,4176.375
389.717559814,4132.0
390.011871338,4217.85
390.306182861,4248.15
390.600463867,4279.3
390.894775391,4316.0
391.189025879,4345.975
391.48324585,4344.3
391.777526855,4387.55
392.071685791,4576.35
392.365875244,4660.0
392.660064697,4720.65
392.95425415,5024.3
393.248382568,5004.7
393.542510986,4590.5
393.836608887,4441.775
394.130706787,4429.95
394.424804688,4384.625
394.71887207,4495.425
395.012878418,4472.625
395.306915283,4367.85
395.600921631,4320.75
395.894927979,4263.625
396.188903809,4324.325
396.482879639,4353.075
396.776794434,4519.075
397.070739746,4489.1
397.364654541,4500.75
397.658538818,4864.775
397.952423096,4883.45
398.246307373,4854.75
398.540100098,5322.975
398.833953857,5205.05
399.127746582,4764.5
399.421508789,4790.65
399.715301514,4723.15
400.009063721,4655.5
400.30279541,4512.175
400.596496582,4430.9
400.890258789,4594.025
401.183929443,4670.9
401.47756958,4561.975
401.771240234,4353.175
402.064880371,4360.425
402.35848999,4400.55
402.652130127,4329.525
402.945678711,4393.875
403.239257812,4345.5
403.532775879,4285.975
403.82635498,4327.425
404.119842529,4254.45
404.413360596,4239.35
404.706848145,4300.35
405.000274658,4215.9
405.293762207,4306.65
405.587188721,4352.4
405.880584717,4215.475
406.17401123,4046.35
406.467407227,3854.45
406.760742188,3865.425
407.054107666,3917.6
407.347442627,3848.075
407.640716553,3837.825
407.934051514,3884.675
408.227325439,3936.45
408.520568848,4130.175
408.813842773,4207.375
409.107086182,4035.35
409.400238037,3988.65
409.693450928,3908.25
409.986633301,4033.25
410.279754639,3963.05
410.572875977,3692.55
410.86605835,3634.625
411.159118652,3652.925
411.452209473,3650.9
411.745330811,3559.55
412.038360596,3464.2
412.331390381,3494.475
412.624420166,3527.7
412.917388916,3447.0
413.210388184,3288.5
413.503387451,3264.4
413.796295166,3161.625
414.089233398,3013.1
414.382141113,2947.075
414.675048828,2944.025
414.967926025,2965.0
415.260803223,2916.7
415.55368042,2927.75
415.846466064,2908.325
416.139282227,2964.475
416.432098389,3085.2
416.724853516,3073.55
417.017608643,3025.05
417.31036377,3026.575
417.603088379,3143.575
417.895782471,3113.8
418.188476562,3095.925
418.481140137,3164.125
418.773803711,3211.075
419.066436768,3170.65
419.359039307,3240.1
419.651641846,3256.475
419.944244385,3251.4
420.236816406,3221.825
420.529327393,3406.55
420.821899414,3469.225
421.114379883,3410.1
421.406860352,3649.45
421.699371338,3840.325
421.991821289,3789.175
422.284240723,3609.375
422.576721191,3493.675
422.869110107,3380.35
423.161468506,3326.525
423.453857422,3355.075
423.74621582,3264.275
424.038543701,3138.275
424.330871582,3113.15
424.623168945,3048.4
424.915435791,3179.8
425.207702637,3141.275
425.499969482,3089.425
425.792205811,3041.175
426.084411621,2819.25
426.376617432,2891.1
426.668762207,2961.725
426.9609375,2842.475
427.253082275,2955.225
427.545196533,3330.375
427.837310791,3062.95
428.129425049,2820.95
428.421447754,3010.075
428.713531494,3010.675
429.005554199,3003.95
429.297576904,3006.825
429.589599609,3391.75
429.881561279,3668.4
430.173522949,3475.125
430.465484619,3441.2
430.757415771,3507.625
431.049316406,3303.875
431.341186523,3075.825
431.633117676,3006.175
431.924957275,2733.825
432.21673584,2641.375
432.508636475,2766.475
432.800415039,2773.375
433.092163086,2687.25
433.383972168,2663.625
433.675689697,3287.675
433.967437744,3738.15
434.259155273,2883.175
434.550872803,2598.975
434.842498779,2642.75
435.134185791,2772.825
435.425842285,2781.55
435.717437744,2701.8
436.009063721,2536.975
436.30065918,2668.65
436.592224121,2984.85
436.883758545,2803.6
437.175323486,2561.925
437.466827393,2541.25
437.758331299,2555.575
438.049804688,2570.0
438.341247559,2635.0
438.63269043,2701.75
438.924163818,2680.15
439.215515137,2645.95
439.50692749,2548.675
439.798309326,2566.3
440.089660645,2589.8
440.380981445,2501.4
440.672332764,2483.35
440.963623047,2729.5
441.254882812,3127.75
441.546173096,3304.55
441.837402344,3086.275
442.128631592,2898.85
442.41986084,2894.3
442.711029053,2771.15
443.002197266,2839.4
443.293365479,3006.075
443.584503174,3118.925
443.875610352,3104.25
444.166717529,2859.625
444.457794189,2907.875
444.748840332,2896.35
445.039916992,2850.675
445.330932617,2932.05
445.621948242,2774.7
445.912963867,2634.675
446.203918457,2828.8
446.494812012,3043.7
446.785827637,2857.625
447.076721191,2689.1
447.367584229,2683.05
447.658447266,2652.0
447.949371338,2692.95
448.24017334,2589.475
448.530975342,2537.55
448.821838379,2673.15
449.112579346,2744.375
449.40335083,2678.45
449.694152832,2707.525
449.984863281,2724.975
450.27557373,2652.5
450.56628418,2708.25
450.856933594,2730.55
451.147583008,2588.4
451.438262939,2485.0
451.728881836,2668.325
452.019470215,2766.25
452.310089111,2564.75
452.600646973,2582.5
452.891174316,2639.95
453.181732178,2488.55
453.472229004,2379.0
453.762695312,2475.5
454.053222656,2494.675
454.343658447,2379.55
454.634063721,2322.875
454.924530029,2487.05
455.214935303,2602.85
455.505279541,2657.65
455.795715332,2528.6
456.086029053,2369.975
456.376312256,2355.15
456.666687012,2380.45
456.956939697,2470.025
457.247192383,2485.275
457.537445068,2538.25
457.827728271,2710.7
458.117919922,2645.675
458.408081055,2560.75
458.698303223,2734.25
458.988433838,2689.375
459.278564453,2510.7
459.568725586,2769.0
459.858825684,2877.8
460.148864746,2588.1
460.438995361,2546.725
460.729034424,2616.55
461.019042969,2615.225
461.309082031,2775.775
461.599060059,2680.6
461.889007568,2298.525
462.179016113,2131.65
462.468933105,2322.075
462.75881958,2431.1
463.048736572,2200.2
463.338592529,2436.75
463.628448486,2754.525
463.918365479,2490.05
464.2081604,2646.425
464.497924805,2618.0
464.787780762,2715.85
465.077514648,2986.5
465.367218018,2651.85
465.657012939,2831.6
465.946685791,3197.8
466.236358643,2838.225
466.526092529,2359.35
466.815734863,2360.575
467.105316162,2288.9
467.394927979,2332.425
467.684570312,2207.55
467.974121094,2277.95
468.263671875,2383.1
468.553222656,2175.775
468.842773438,2083.475
469.132232666,1987.975
469.42175293,2007.8
469.711212158,1993.475
470.000640869,1880.375
470.290100098,1939.2
470.579498291,1959.775
470.868835449,1971.475
471.158294678,1918.2
471.447601318,1910.625
471.736907959,1978.65
472.026275635,2032.9
472.315551758,2028.5
472.604797363,2000.975
472.894104004,2128.4
473.183319092,2218.175
473.47253418,2213.475
473.761779785,2210.875
474.05090332,2144.125
474.340087891,2107.0
474.629241943,2037.225
474.918365479,2196.675
475.207427979,2442.575
475.496551514,2463.325
475.785614014,2226.075
476.074645996,2043.65
476.363708496,2133.9
476.652679443,2250.85
476.941650391,2094.7
477.230682373,1953.7
477.519622803,1958.9
477.808502197,2098.55
478.097412109,2328.975
478.386352539,2286.3
478.675201416,2049.075
478.964050293,1966.475
479.25289917,2119.8
479.541717529,2176.675
479.830474854,2026.8
480.11932373,2340.225
480.408050537,2487.5
480.696777344,2166.025
480.985534668,2035.05
481.274200439,2120.3
481.562866211,2344.375
481.851593018,2358.8
482.140197754,2310.3
482.428833008,2168.425
482.717468262,1987.475
483.006011963,2013.275
483.294586182,2116.65
483.5831604,2148.8
483.871673584,2034.85
484.16015625,2148.5
484.448699951,2364.175
484.7371521,2406.0
485.02557373,2409.875
485.314025879,2166.7
485.602416992,3343.0
485.890777588,11975.3
486.179199219,10708.375
486.467559814,2840.225
486.755859375,2079.575
487.044219971,2412.175
487.332519531,2581.725
487.620758057,2207.2
487.908966064,1984.3
488.197265625,1802.95
488.485473633,1720.9
488.773651123,1820.8
489.061859131,1806.725
489.350006104,1761.175
489.638122559,1715.025
489.926300049,1726.575
490.214355469,1684.725
490.502441406,1640.55
490.790527344,1583.425
491.078552246,1754.0
491.366546631,1750.625
491.654602051,1544.425
491.942565918,1613.05
492.230499268,1645.975
492.518493652,1620.275
492.806396484,1635.825
493.094268799,1563.125
493.382202148,1604.9
493.670074463,1703.35
493.957885742,1570.225
494.245727539,1560.275
494.533508301,1705.775
494.821289062,1609.3
495.109100342,1479.35
495.396850586,1436.075
495.684539795,1398.475
495.972290039,1578.075
496.25994873,1870.35
496.547607422,1886.35
496.835296631,1728.325
497.122894287,1437.85
497.410522461,1372.025
497.6980896,1366.725
497.985687256,1349.4
498.273223877,1429.35
498.560760498,1494.9
498.848266602,1513.45
499.135772705,1490.375
499.423217773,1526.25
499.710693359,1621.875
499.998138428,1559.825
500.285522461,1414.05
500.572937012,1350.375
500.860290527,1393.425
501.147644043,1483.075
501.434997559,1685.375
501.722290039,1561.2
502.00958252,1342.525
502.296875,1594.775
502.584106445,1575.025
502.871337891,1412.725
503.158599854,1476.95
503.445770264,1548.95
503.732910156,1529.925
504.020141602,1360.75
504.307220459,1357.2
504.594329834,1386.575
504.881469727,1327.675
505.168518066,1381.4
505.455535889,1442.125
505.742614746,1327.35
506.029632568,1280.725
506.316589355,1449.4
506.603637695,1513.0
506.890563965,1351.15
507.177459717,1206.5
507.464385986,1127.375
507.751312256,1326.45
508.038146973,1400.575
508.325012207,1271.15
508.611877441,1314.2
508.898681641,1340.725
509.185424805,1198.75
509.472259521,1163.825
509.759002686,1229.025
510.045715332,1267.45
510.332458496,1213.65
510.619140625,1262.95
510.905761719,1196.65
511.192504883,1186.175
511.479095459,1214.2
511.765686035,1178.95
512.052307129,1097.575
512.338928223,1056.025
512.625427246,1105.875
512.91204834,1154.8
513.198486328,1143.425
513.484985352,1115.2
513.77142334,1048.475
514.057922363,1081.5
514.344299316,1084.525
514.63079834,1052.725
514.917175293,1037.75
515.203552246,960.45
515.489868164,937.8
515.776245117,1040.625
516.0625,1071.95
516.348815918,997.8
516.635070801,1032.225
516.921325684,1074.975
517.207580566,1031.0
517.493774414,933.075
517.779968262,950.3
518.066101074,986.35
518.352294922,938.5
518.638366699,955.175
518.924499512,1016.175
519.210632324,1074.025
519.496643066,1051.45
519.782714844,961.375
520.068786621,939.175
520.354736328,900.475
520.640686035,870.275
520.926757812,906.1
521.212646484,978.4
521.498535156,971.075
521.784484863,928.925
522.0703125,871.075
522.356262207,894.6
522.642089844,947.25
522.927856445,946.15
523.213684082,936.875
523.499511719,934.6
523.78527832,969.0
524.070983887,1021.975
524.356750488,996.85
524.64239502,958.025
524.928039551,948.625
525.213806152,979.475
525.499389648,959.575
525.784973145,980.175
526.070617676,1023.65
526.356140137,983.95
526.641723633,1004.875
526.927307129,1043.85
527.212768555,1059.975
527.498291016,1032.075
527.783752441,1031.75
528.069213867,1024.075
528.354675293,1041.875
528.640014648,1176.775
528.925476074,1240.225
529.21081543,1174.125
529.496154785,1148.725
529.781555176,1120.1
530.066833496,1134.8
530.352050781,1149.8
530.637390137,1140.85
530.922607422,1144.675
531.207824707,1135.0
531.493041992,1130.675
531.778198242,1182.85
532.063354492,1165.3
532.348571777,1123.825
532.633666992,1132.975
532.918762207,1206.1
533.203857422,1281.7
533.488891602,1295.525
533.773925781,1255.55
534.059020996,1227.6
534.343933105,1261.45
534.628967285,1229.6
534.91394043,1252.925
535.198852539,1259.95
535.483703613,1239.55
535.768676758,1181.1
536.053527832,1196.425
536.338317871,1166.075
536.62322998,1103.925
536.90802002,1094.05
537.192810059,1098.075
537.477539062,1170.15
537.762329102,1202.425
538.047058105,1236.825
538.331726074,1264.2
538.616455078,1252.9
538.901123047,1231.475
539.18572998,1274.2
539.470397949,1275.975
539.755004883,1264.0
540.039550781,1229.55
540.32409668,1199.9
540.608703613,1240.125
540.893188477,1318.05
541.17767334,1332.575
541.462158203,1341.45
541.746643066,1283.55
542.031066895,1318.025
542.315429688,1358.775
542.59979248,1362.125
542.884216309,1335.475
543.168579102,1327.775
543.452941895,1333.45
543.737243652,1391.625
544.021484375,1432.925
544.305725098,1422.95
544.590026855,1403.65
544.874267578,1417.725
545.158447266,1479.3
545.442626953,1405.0
545.726806641,1313.025
546.010925293,1328.925
546.29510498,1360.8
546.579162598,1359.225
546.863220215,1384.975
547.147277832,1455.65
547.431335449,1509.575
547.715332031,1563.075
547.999328613,1670.05
548.283325195,1668.2
548.567260742,1540.425
548.851135254,1522.625
549.135070801,1501.9
549.419006348,1412.6
549.702819824,1498.625
549.986755371,1563.85
550.270507812,1523.2
550.554321289,1570.4
550.83807373,1581.325
551.121826172,1542.05
551.405517578,1564.8
551.689331055,1661.05
551.973022461,1852.95
552.256652832,1904.725
552.540344238,1826.0
552.823974609,1808.95
553.107543945,1785.3
553.391174316,1843.75
553.674743652,1885.3
553.958251953,1892.85
554.241821289,1900.75
554.525268555,1846.625
554.808776855,1842.75
555.092285156,2015.925
555.375671387,2071.2
555.659057617,2073.075
555.942504883,2090.25
556.225891113,2125.9
556.509216309,2085.3
556.792541504,2007.025
557.075866699,2078.925
557.359130859,2110.4
557.64239502,2104.75
557.92565918,2178.425
558.208862305,2175.9
558.49206543,2098.575
558.77532959,2115.9
559.058410645,2169.9
559.341552734,2152.275
559.624694824,2193.8
559.907775879,2262.1
560.190856934,2370.9
560.473937988,2348.35
560.756896973,2379.775
561.039978027,2414.95
561.322937012,2370.075
561.605895996,2372.875
561.88885498,2339.325
562.171813965,2331.175
562.454650879,2318.35
562.737548828,2354.775
563.020446777,2404.425
563.303283691,2429.325
563.58605957,2456.85
563.868896484,2479.025
564.151672363,2524.65
564.434387207,2541.25
564.717163086,2517.875
564.99987793,2548.475
565.282531738,2607.05
565.565185547,2547.3
565.847839355,2564.7
566.130432129,2657.55
566.413085938,2625.025
566.695678711,2637.9
566.978149414,2750.775
567.260681152,2865.05
567.543273926,2929.775
567.825744629,2837.55
568.108154297,2884.075
568.390686035,2980.55
568.673095703,3082.725
568.955505371,3132.6
569.237854004,3149.15
569.520202637,3373.725
569.802490234,3548.425
570.084838867,3548.15
570.367126465,3389.125
570.649414062,3422.55
570.93170166,3715.6
571.213928223,3766.375
571.496154785,3576.55
571.778381348,3750.975
572.06048584,3970.325
572.342590332,3583.55
572.624755859,3292.975
572.906860352,3347.6
573.188903809,3924.025
573.470947266,4126.625
573.752990723,3923.125
574.03503418,4008.125
574.317016602,4329.425
574.598937988,4162.975
574.88092041,4062.025
575.162841797,4201.125
575.444763184,3878.3
575.726623535,3671.4
576.008483887,3717.625
576.290344238,4055.4
576.572143555,4205.55
576.853881836,4261.525
577.135681152,4200.9
577.417419434,4241.0
577.699157715,4974.8
577.980895996,5117.825
578.262573242,4569.55
578.544128418,4172.2
578.825866699,4095.5
579.107421875,3844.375
579.388977051,3977.575
579.670593262,4328.0
579.952148438,4173.275
580.233642578,4293.75
580.515197754,4377.5
580.796691895,4108.0
581.078125,4269.95
581.359619141,5551.6
581.640991211,5641.425
581.922363281,4845.425
582.203796387,4905.25
582.485107422,4604.6
582.766418457,4264.4
583.047790527,4117.7
583.329040527,4032.5
583.610290527,3924.6
583.891540527,4019.075
584.172790527,4279.175
584.453918457,4285.05
584.735107422,4351.05
585.016235352,4737.775
585.297363281,4702.675
585.578552246,4538.625
585.859619141,4495.2
586.140625,4283.2
586.421630859,4187.875
586.702697754,4214.25
586.983642578,4411.475
587.264648438,4535.8
587.545654297,4497.4
587.826477051,4451.625
588.107421875,4300.025
588.388305664,4329.9
588.669189453,4422.975
588.950012207,4284.075
589.230834961,4213.15
589.511657715,4282.3
589.792358398,4339.4
590.073120117,4364.275
590.353881836,4312.875
590.63458252,4354.8
590.915283203,4328.125
591.195922852,4308.25
591.4765625,4351.375
591.757202148,4398.225
592.037780762,4387.625
592.31829834,4399.025
592.598937988,4600.8
592.879394531,4713.0
593.159912109,4638.725
593.440429688,4598.125
593.720825195,4562.7
594.001281738,4556.7
594.281677246,4490.125
594.562072754,4495.45
594.842407227,4590.8
595.122802734,4617.95
595.403137207,4611.6
595.683410645,4591.875
595.963623047,4587.925
596.243896484,4559.575
596.524169922,4542.725
596.804382324,4551.25
597.084533691,4592.95
597.364746094,4612.975
597.644836426,4651.075
597.924987793,4656.95
598.205078125,4626.725
598.485107422,4637.65
598.765197754,4746.675
599.045227051,4799.075
599.325195312,4713.25
599.605224609,4669.475
599.885192871,4703.5
600.165100098,4736.175
600.445007324,4703.1
600.724914551,4696.3
601.004760742,4729.6
601.284667969,4756.375
601.56451416,4728.95
601.844238281,4720.975
602.124084473,4737.775
602.403808594,4743.125
602.683532715,4792.05
602.963256836,4763.075
603.242919922,4805.825
603.522583008,4851.95
603.802246094,4828.725
604.081848145,4801.3
604.36138916,4779.4
604.641052246,4805.175
604.920532227,4760.175
605.200073242,4814.55
605.479614258,4839.2
605.759094238,4881.3
606.038574219,4856.675
606.317932129,4808.625
606.597412109,4811.925
606.87677002,4833.7
607.15612793,4862.525
607.435546875,4880.725
607.714782715,4884.2
607.99407959,4857.775
608.273376465,4843.0
608.552612305,4851.425
608.831848145,4885.075
609.111083984,4897.4
609.390258789,4866.8
609.669433594,4858.85
609.948608398,4934.8
610.227722168,4911.425
610.506713867,4850.0
610.785888672,4882.45
611.064880371,4865.575
611.34387207,4868.95
611.622924805,4895.875
611.901916504,4880.725
612.180847168,4844.875
612.459777832,4851.275
612.738647461,4842.725
613.01751709,4820.675
613.296447754,4778.8
613.575317383,4754.35
613.854064941,4720.1
614.132873535,4642.15
614.411621094,4619.275
614.690368652,4577.225
614.969177246,4536.8
615.247802734,4465.4
615.526489258,4445.425
615.805175781,4351.275
616.08380127,4266.85
616.362365723,4170.525
616.640991211,4125.4
616.919555664,4085.95
617.198059082,4187.1
617.4765625,4439.8
617.755126953,4545.225
618.033569336,4586.2
618.311950684,4584.775
618.590454102,4584.05
618.868774414,4585.0
619.147155762,4566.2
619.425598145,4548.875
619.703857422,4578.675
619.982177734,4590.275
620.260498047,4580.45
620.538757324,4577.025
620.816955566,4520.325
621.095214844,4511.7
621.373413086,4506.925
621.651550293,4590.05
621.929748535,4577.975
622.207824707,4584.65
622.485900879,4596.0
622.764038086,4583.125
623.042053223,4635.35
623.320007324,4659.175
623.598083496,4647.7
623.876037598,4630.625
624.153991699,4634.0
624.432006836,4656.725
624.709838867,4663.475
624.987731934,4653.15
625.265563965,4657.025
625.543395996,4673.975
625.821228027,4719.575
626.098999023,4715.925
626.376831055,4743.525
626.654541016,4779.55
626.932250977,4787.7
627.209960938,4833.2
627.487670898,4853.95
627.765319824,4878.675
628.04296875,4877.875
628.320495605,4873.675
628.598083496,4868.35
628.875671387,4913.15
629.153259277,4945.75
629.430725098,5001.625
629.708251953,4981.925
629.985656738,4988.125
630.263122559,5031.525
630.540588379,5048.275
630.817932129,5062.1
631.095275879,5105.2
631.372680664,5137.8
631.649963379,5188.3
631.927246094,5221.025
632.204589844,5232.35
632.481811523,5291.25
632.759033203,5361.025
633.036254883,5375.625
633.313415527,5457.675
633.590576172,5492.95
633.867736816,5571.325
634.144836426,5621.975
634.421875,5666.625
634.698913574,5730.325
634.976013184,5746.525
635.252990723,5814.425
635.529968262,5845.325
635.807006836,5928.975
636.08392334,5918.325
636.360839844,5843.4
636.637756348,5734.55
636.914611816,5721.425
637.191467285,5686.125
637.468261719,5769.825
637.745056152,5719.85
638.021789551,5730.375
638.298583984,5762.5
638.575317383,5801.95
638.851989746,5788.05
639.12878418,5801.325
639.405395508,5785.425
639.682006836,5810.625
639.958618164,5815.15
640.235229492,5778.2
640.511779785,5821.825
640.788330078,5792.5
641.064880371,5783.3
641.341308594,5745.2
641.617797852,5772.05
641.894226074,5767.0
642.170654297,5787.85
642.44708252,5787.975
642.723388672,5774.175
642.999755859,5763.5
643.276123047,5746.325
643.552429199,5749.275
643.828674316,5751.675
644.104919434,5731.1
644.381164551,5737.525
644.657348633,5725.55
644.933532715,5685.975
645.209716797,5698.475
645.485839844,5701.275
645.761901855,5697.025
646.038024902,5649.625
646.314086914,5713.775
646.590087891,5669.65
646.866149902,5668.55
647.142150879,5639.65
647.41809082,5632.375
647.694030762,5630.2
647.969970703,5613.15
648.245788574,5634.25
648.521728516,5625.225
648.797546387,5620.825
649.073303223,5627.3
649.349182129,5600.4
649.624938965,5585.5
649.900634766,5595.075
650.176391602,5578.625
650.452087402,5559.0
650.727783203,5546.675
651.003479004,5550.425
651.279052734,5529.65
651.554626465,5517.275
651.83026123,5518.65
652.105773926,5523.65
652.381286621,5479.95
652.656860352,5482.975
652.932312012,5492.275
653.207763672,5490.825
653.483215332,5527.925
653.758605957,5511.45
654.033935547,5507.85
654.309326172,5520.925
654.584716797,5503.975
654.859985352,5496.875
655.135253906,5521.5
655.410583496,5500.225
655.685791016,6360.225
655.9609375,9917.225
656.236206055,9679.975
656.511291504,6389.0
656.786437988,5610.6
657.061645508,5511.05
657.336669922,5486.45
657.611694336,5524.55
657.886779785,5534.425
658.161804199,5538.45
658.436828613,5488.375
658.711791992,5508.475
658.986755371,5530.825
659.261657715,5517.175
659.536621094,5524.25
659.811401367,5534.825
660.086303711,5537.325
660.36114502,5528.4
660.635864258,5506.925
660.910644531,5515.725
661.185424805,5493.875
661.460205078,5517.6
661.734863281,5525.5
662.009521484,5495.325
662.284179688,5508.45
662.558776855,5517.525
662.833435059,5548.425
663.108032227,5550.025
663.382568359,5539.75
663.657043457,5571.4
663.93157959,5556.675
664.206054688,5533.2
664.48046875,5585.875
664.755004883,5580.5
665.02935791,5608.975
665.303710938,5620.9
665.578125,5604.925
665.852416992,5617.85
666.126708984,5596.6
666.401062012,5598.85
666.675292969,5619.1
666.949462891,5627.4
667.223754883,5598.075
667.497924805,5634.275
667.772094727,5622.025
668.046264648,5594.2
668.3203125,5639.45
668.594421387,5642.975
668.868469238,5630.35
669.14251709,5626.625
669.416503906,5663.375
669.690551758,5656.375
669.964477539,5647.9
670.23840332,5646.6
670.512329102,5624.375
670.786254883,5618.025
671.060058594,5653.375
671.333984375,5638.275
671.607788086,5673.025
671.881530762,5643.425
672.155334473,5681.75
672.429077148,5656.275
672.702758789,5667.7
672.97644043,5648.55
673.25012207,5661.975
673.523742676,5636.075
673.797302246,5621.775
674.070922852,5675.925
674.344482422,5664.275
674.618041992,5646.35
674.891601562,5664.3
675.165100098,5660.925
675.438476562,5643.7
675.711975098,5670.375
675.985412598,5625.175
676.258789062,5608.325
676.532165527,5626.55
676.805480957,5627.275
677.078796387,5624.325
677.352111816,5624.75
677.625366211,5629.65
677.898620605,5587.3
678.171875,5646.225
678.445007324,5626.95
678.718200684,5617.825
678.991394043,5605.7
679.264404297,5613.15
679.537536621,5633.975
679.81060791,5620.525
680.083679199,5590.1
680.356689453,5600.85
680.629699707,5618.475
680.902648926,5586.125
681.175598145,5596.45
681.448547363,5622.05
681.721435547,5566.025
681.99420166,5570.9
682.267150879,5552.725
682.539916992,5586.225
682.812744141,5574.2
683.085510254,5533.45
683.358215332,5541.85
683.63092041,5526.875
683.903625488,5518.225
684.176330566,5513.475
684.448913574,5479.65
684.721557617,5475.225
684.99420166,5503.625
685.266662598,5485.35
685.539245605,5490.25
685.811767578,5505.175
686.084289551,5504.2
686.356689453,5530.575
686.629150391,5524.4
686.901550293,5530.075
687.17401123,5528.15
687.446350098,5530.875
687.718688965,5533.65
687.990966797,5529.95
688.263305664,5538.075
688.535522461,5522.3
688.807739258,5500.1
689.079956055,5510.425
689.352172852,5544.075
689.624328613,5522.525
689.896484375,5519.625
690.168518066,5526.775
690.440612793,5539.225
690.71270752,5505.05
690.984741211,5517.8
691.256713867,5509.55
691.528747559,5505.875
691.800720215,5513.1
692.072631836,5491.15
692.344543457,5516.875
692.616394043,5527.125
692.888244629,5505.425
693.160095215,5542.325
693.431945801,5525.975
693.703674316,5480.225
693.975463867,5494.65
694.247131348,5499.3
694.518859863,5492.25
694.790588379,5498.4
695.062255859,5479.95
695.33380127,5473.225
695.60546875,5471.025
695.87701416,5463.05
696.148498535,5483.75
696.42010498,5476.35
696.691589355,5469.725
696.96307373,5499.325
697.234558105,5488.775
697.50592041,5497.675
697.777282715,5510.3
698.048706055,5477.75
698.320068359,5497.9
698.591308594,5455.775
698.862670898,5468.275
699.133972168,5476.4
699.405151367,5455.0
699.676391602,5497.25
699.947570801,5432.275
700.21875,5451.475
700.489868164,5452.425
700.761047363,5443.55
701.032104492,5465.45
701.303100586,5420.525
701.57421875,5446.425
701.845214844,5425.5
702.116149902,5425.025
702.387207031,5411.825
702.65814209,5421.475
702.928955078,5412.475
703.199951172,5406.975
703.47076416,5378.95
703.741577148,5378.625
704.012451172,5397.625
704.28314209,5400.425
704.553955078,5394.475
704.824707031,5402.825
705.095397949,5392.9
705.366027832,5383.875
705.63671875,5390.175
705.907348633,5366.025
706.17791748,5366.775
706.448486328,5364.825
706.719055176,5373.725
706.989562988,5385.725
707.260131836,5379.9
707.530517578,5371.325
707.800964355,5369.4
708.071411133,5332.6
708.341796875,5322.25
708.612182617,5346.975
708.882446289,5286.2
709.152893066,5312.0
709.423156738,5326.325
709.693359375,5306.35
709.963623047,5304.45
710.233825684,5300.525
710.503967285,5266.0
710.774169922,5283.9
711.044311523,5274.725
711.31439209,5256.15
711.584533691,5272.7
711.854553223,5264.475
712.124572754,5257.5
712.39465332,5226.25
712.664611816,5250.8
712.934509277,5267.35
713.204467773,5230.625
713.474365234,5235.1
713.74420166,5222.575
714.014099121,5234.25
714.283874512,5241.875
714.553710938,5248.125
714.823486328,5218.4
715.093200684,5206.95
715.362915039,5211.5
715.632629395,5199.0
715.902282715,5178.45
716.171875,5178.4
716.441589355,5154.65
716.711181641,5141.45
716.980712891,5145.85
717.250244141,5148.95
717.519775391,5144.1
717.78918457,5120.8
718.058654785,5172.4
718.328125,5163.2
718.597473145,5121.525
718.866882324,5136.7
719.136230469,5109.275
719.405578613,5142.95
719.674865723,5130.875
719.944152832,5123.075
720.213439941,5110.375
720.48260498,5115.2
720.75177002,5105.95
721.020996094,5099.575
721.290100098,5084.575
721.559204102,5075.2
721.828308105,5083.35
722.097351074,5077.4
722.366455078,5072.45
722.635437012,5053.55
722.904418945,5045.5
723.173400879,5054.05
723.442321777,5050.5
723.711181641,5022.9
723.980102539,5056.95
724.248962402,5025.25
724.51776123,5036.575
724.786560059,5036.1
725.055358887,5042.125
725.324035645,4997.225
725.592834473,5014.225
725.86151123,5002.55
726.130187988,4986.975
726.398803711,4974.425
726.667419434,4986.025
726.935974121,4972.8
727.204528809,4927.925
727.473083496,4961.6
727.741638184,4934.475
728.010070801,4916.675
728.278564453,4913.5
728.546936035,4904.9
728.815368652,4877.85
729.08380127,4835.7
729.352111816,4811.65
729.620361328,4759.45
729.88873291,4785.9
730.156982422,4810.4
730.425231934,4809.325
730.693481445,4805.5
730.961669922,4847.475
731.229797363,4855.45
731.49798584,4867.125
731.766113281,4891.975
732.034118652,4913.85
732.302246094,4953.55
732.570251465,4964.375
732.838256836,4969.975
733.106262207,5013.8
733.374145508,5016.275
733.642089844,5039.725
733.909973145,5077.0
734.177856445,5124.45
734.445678711,5171.925
734.713562012,5205.425
734.981323242,5218.1
735.249084473,5232.75
735.516845703,5320.8
735.784545898,5356.8
736.052185059,5382.85
736.319885254,5442.725
736.587524414,5457.05
736.855102539,5498.825
737.122619629,5571.225
737.390197754,5585.475
737.657714844,5660.9
737.925170898,5678.95
738.192749023,5731.175
738.460144043,5766.7
738.727539062,5789.625
738.994995117,5859.45
739.262329102,5887.9
739.529663086,5948.0
739.79699707,5961.65
740.06427002,6004.625
740.331481934,6031.5
740.598754883,6073.375
740.865905762,6090.3
741.133056641,6185.725
741.40032959,6183.825
741.667358398,6218.7
741.934448242,6230.55
742.201599121,6268.275
742.468566895,6335.2
742.735534668,6357.425
743.002563477,6391.7
743.26953125,6371.975
743.536437988,6425.475
743.803405762,6460.125
744.0703125,6443.8
744.337097168,6505.15
744.604003906,6465.425
744.870727539,6516.925
745.137512207,6539.55
745.40423584,6560.975
745.670959473,6533.85
745.93762207,6586.425
746.204284668,6573.75
746.470947266,6595.175
746.737548828,6568.075
747.004089355,6620.675
747.270751953,6628.6
747.53717041,6635.15
747.803710938,6613.825
748.070251465,6588.9
748.336608887,6590.3
748.603027344,6580.425
748.869445801,6595.575
749.135803223,6616.275
749.402099609,6627.3
749.668457031,6641.125
749.934753418,6601.425
750.20098877,6623.175
750.467224121,6630.15
750.733459473,6594.275
750.999572754,6592.95
751.26574707,6574.5
751.531860352,6565.875
751.797912598,6559.325
752.064025879,6534.425
752.330078125,6531.475
752.596069336,6534.8
752.862060547,6531.675
753.127990723,6504.175
753.393920898,6505.725
753.659912109,6479.45
753.925720215,6515.0
754.19152832,6494.45
754.457397461,6452.6
754.723144531,6436.625
754.988952637,6421.375
755.254699707,6436.625
755.520385742,6463.85
755.786071777,6475.9
756.051696777,6458.175
756.317382812,6406.275
756.582946777,6414.6
756.848510742,6438.425
757.114074707,6403.75
757.379577637,6416.65
757.645080566,6439.525
757.910583496,6434.325
758.175964355,6399.0
758.441345215,6405.875
758.706848145,6320.15
758.972106934,6343.75
759.237426758,6349.475
759.502807617,6379.175
759.768005371,6375.225
760.03326416,6383.875
760.298522949,6319.25
760.563659668,6353.075
760.828857422,6349.075
761.093994141,6346.275
761.359130859,6330.825
761.624206543,6305.875
761.889282227,6305.5
762.15423584,6286.575
762.419250488,6300.75
762.684265137,6263.6
762.949157715,6246.625
763.214050293,6244.45
763.479003906,6283.6
763.743835449,6274.725
764.008666992,6250.7
764.2734375,6229.95
764.538208008,6256.725
764.802978516,6281.85
765.067687988,6250.45
765.332397461,6285.375
765.597045898,6267.725
765.861694336,6268.85
766.126342773,6254.125
766.390930176,6247.65
766.655395508,6230.25
766.920043945,6221.225
767.184509277,6204.25
767.448974609,6220.45
767.713439941,6228.125
767.977783203,6184.65
768.2421875,6216.175
768.506591797,6195.85
768.770874023,6284.2
769.03515625,6249.2
769.299499512,6239.4
769.563720703,6274.1
769.827941895,6233.95
770.092163086,6258.75
770.356323242,6231.8
770.620483398,6245.25
770.88458252,6245.35
771.148681641,6273.05
771.412719727,6283.125
771.676757812,6266.9
771.940734863,6260.8
772.204711914,6263.625
772.468688965,6239.85
772.73260498,6261.45
772.996459961,6259.6
773.260314941,5566.8
773.524169922,748.0
773.787963867,140.1
774.051696777,124.225
774.315551758,118.225
774.579223633,120.4
774.842895508,120.225
775.106567383,124.6
775.370239258,117.05
775.633789062,123.45
775.897399902,126.9
776.160949707,120.2
776.424499512,122.5
776.687988281,123.75
776.951477051,125.65
777.214904785,120.325
777.47833252,122.5
