191.299911499,99.875
191.603515625,103.5
191.907119751,97.0
192.210693359,103.2
192.514251709,96.525
192.817810059,101.2
193.121368408,102.55
193.42489624,104.325
193.728408813,97.975
194.031936646,100.7
194.33543396,94.8
194.638916016,110.575
194.94241333,96.575
195.245880127,97.0
195.549331665,93.35
195.852767944,100.2
196.156204224,176.625
196.459625244,167.175
196.763015747,171.425
197.066436768,177.3
197.369812012,170.25
197.673187256,173.075
197.9765625,168.225
198.279922485,168.35
198.583251953,165.325
198.886581421,174.775
199.18989563,176.275
199.493209839,170.05
199.79649353,166.15
200.09979248,176.55
200.403076172,166.525
200.706314087,170.2
201.009567261,169.775
201.312820435,171.15
201.616027832,161.475
201.919235229,161.6
202.222457886,165.175
202.525634766,166.275
202.828826904,161.725
203.132003784,163.125
203.435150146,161.125
203.738296509,160.825
204.041412354,165.375
204.344558716,165.15
204.647659302,168.125
204.950759888,169.55
205.253845215,169.35
205.556930542,160.25
205.859985352,161.225
206.163024902,166.575
206.466079712,164.975
206.769104004,171.975
207.072113037,165.225
207.375137329,162.4
207.678131104,167.125
207.981109619,166.375
208.284088135,161.225
208.587036133,167.325
208.889984131,168.625
209.19291687,170.3
209.495849609,171.575
209.798751831,169.75
210.101654053,167.8
210.404556274,170.25
210.707427979,167.9
211.010269165,177.375
211.31312561,171.0
211.615982056,172.025
211.918807983,173.4
212.221618652,168.425
212.524429321,165.275
212.827224731,172.325
213.130004883,173.625
213.432769775,170.7
213.735534668,175.5
214.038269043,174.875
214.341003418,171.4
214.643737793,177.5
214.946456909,179.875
215.249145508,180.2
215.551834106,179.15
215.854507446,179.075
216.157165527,177.55
216.45980835,180.075
216.762451172,186.05
217.065078735,184.675
217.36769104,184.7
217.670303345,184.725
217.972885132,190.35
218.275466919,191.475
218.578048706,183.025
218.880599976,194.425
219.183120728,189.25
219.485656738,190.825
219.788192749,199.5
220.090682983,211.175
220.393188477,225.925
220.695663452,248.4
220.998138428,267.75
221.300582886,301.5
221.603042603,317.4
221.905487061,353.55
222.207901001,394.45
222.510299683,438.3
222.812728882,485.25
223.115097046,530.325
223.41746521,590.125
223.719848633,639.775
224.022171021,698.475
224.324508667,752.975
224.626846313,820.225
224.929168701,884.325
225.231460571,939.85
225.533737183,990.625
225.836013794,1052.525
226.138290405,1114.4
226.440536499,1154.975
226.742767334,1210.175
227.044998169,1240.75
227.347213745,1304.3
227.649429321,1332.575
227.951629639,1361.175
228.253799438,1395.3
228.555953979,1427.25
228.858123779,1465.1
229.160263062,1485.25
229.462371826,1494.9
229.764511108,1524.675
230.066619873,1542.125
230.36869812,1575.475
230.670776367,1586.7
230.972854614,1604.05
231.274902344,1621.5
231.576950073,1654.8
231.878967285,1654.575
232.180999756,1674.55
232.48298645,1702.35
232.784988403,1734.55
233.086975098,1752.65
233.388946533,1749.5
233.69090271,1783.3
233.992858887,1802.625
234.294769287,1791.75
234.596694946,1822.275
234.898605347,1835.5
235.200500488,1837.875
235.502380371,1856.725
235.804244995,1838.05
236.106109619,1834.3
236.407958984,1859.275
236.709777832,1832.725
237.011581421,1852.575
237.313400269,1838.525
237.615203857,1838.375
237.916976929,1850.525
238.21875,1823.95
238.520507812,1838.225
238.822250366,1832.4
239.12399292,1834.05
239.425704956,1841.775
239.727401733,1817.75
240.02911377,1835.6
240.330780029,1803.05
240.632446289,1830.075
240.93409729,1818.65
241.23576355,1822.875
241.537384033,1826.825
241.839004517,1820.825
242.140594482,1831.0
242.442199707,1836.6
242.743774414,1832.625
243.045333862,1839.9
243.346923828,1835.225
243.648452759,1833.325
243.949966431,1841.5
244.251495361,1855.75
244.552993774,1848.9
244.854492188,1829.625
245.155975342,1851.15
245.457443237,1859.875
245.758880615,1846.65
246.060333252,1844.8
246.36177063,1839.0
246.66317749,1819.0
246.964569092,1823.625
247.265945435,1827.225
247.567337036,1817.9
247.86869812,1843.825
248.170059204,1835.3
248.471389771,1837.225
248.772705078,1848.875
249.074035645,1862.775
249.375335693,1869.6
249.676620483,1891.6
249.977890015,1893.225
250.279159546,1946.95
250.58039856,1960.4
250.881637573,1974.825
251.182876587,1995.225
251.484069824,2055.525
251.785263062,2068.45
252.086456299,2112.525
252.387619019,2134.425
252.688781738,2170.5
252.989929199,2205.925
253.291061401,2256.5
253.592178345,2303.825
253.893280029,2311.375
254.194366455,2359.95
254.49546814,2401.8
254.796524048,2436.575
255.097579956,2455.075
255.398620605,2495.65
255.699645996,2525.575
256.000640869,2551.475
256.30166626,2575.775
256.602661133,2613.6
256.903656006,2615.9
257.204589844,2654.7
257.505523682,2673.15
257.80645752,2700.575
258.107391357,2724.225
258.408294678,2735.975
258.709228516,2740.85
259.010070801,2745.15
259.310943604,2773.6
259.611846924,2768.7
259.912658691,2759.625
260.213500977,2782.925
260.514343262,2775.95
260.815124512,2785.85
261.115936279,2773.575
261.416717529,2782.3
261.717468262,2807.075
262.018218994,2808.4
262.318969727,2835.95
262.619689941,2872.4
262.920410156,2887.075
263.221130371,2937.325
263.521789551,2973.575
263.822479248,3017.375
264.123138428,3054.1
264.42376709,3091.725
264.72442627,3103.275
265.025054932,3135.075
265.325622559,3169.875
265.626251221,3178.075
265.926818848,3176.175
266.227386475,3183.9
266.527954102,3186.075
266.828460693,3212.575
267.12902832,3168.1
267.429534912,3177.025
267.730010986,3183.5
268.030517578,3138.95
268.330993652,3166.475
268.631439209,3160.675
268.931915283,3169.6
269.232299805,3171.525
269.532745361,3171.025
269.8331604,3158.475
270.133544922,3154.275
270.433929443,3181.8
270.734313965,3192.125
271.034637451,3217.25
271.334991455,3229.25
271.635314941,3266.725
271.935638428,3283.45
272.235931396,3326.2
272.536254883,3359.25
272.836486816,3400.375
273.136749268,3469.8
273.437011719,3531.5
273.737213135,3629.8
274.037445068,3675.1
274.337677002,3742.075
274.6378479,3819.45
274.938049316,3926.35
275.238220215,3977.125
275.538360596,4112.0
275.838500977,4161.95
276.138641357,4287.0
276.438751221,4318.925
276.738830566,4397.4
277.03894043,4437.125
277.338989258,4579.85
277.639038086,4643.675
277.939056396,4699.4
278.239105225,4764.65
278.539093018,4836.8
278.839141846,4896.6
279.139129639,4955.475
279.439086914,5039.425
279.739044189,5112.2
280.039001465,5178.1
280.338928223,5203.275
280.63885498,5277.5
280.938781738,5329.325
281.238647461,5364.4
281.538513184,5412.45
281.838409424,5440.35
282.138244629,5519.3
282.438079834,5545.55
282.737945557,5576.375
283.037719727,5618.325
283.337524414,5655.5
283.637298584,5703.075
283.937072754,5749.225
284.236816406,5763.375
284.536560059,5778.375
284.836303711,5801.85
285.136016846,5871.925
285.43572998,5899.95
285.735412598,5887.225
286.035064697,5933.275
286.334747314,5974.95
286.634368896,5998.825
286.933990479,5988.3
287.233642578,5967.25
287.533203125,5984.025
287.832824707,5947.675
288.132385254,5906.2
288.431945801,5817.375
288.731506348,5743.8
289.031036377,5617.55
289.330566406,5548.875
289.630065918,5552.075
289.92956543,5539.35
290.229034424,5627.85
290.528503418,5767.5
290.827941895,5904.775
291.127380371,6035.85
291.42678833,6128.475
291.726226807,6271.0
292.025604248,6297.075
292.324981689,6360.725
292.624359131,6394.1
292.923736572,6408.15
293.223052979,6431.1
293.522369385,6445.625
293.821685791,6388.9
294.12097168,6376.25
294.420257568,6388.725
294.719543457,6383.3
295.018768311,6374.65
295.318023682,6334.575
295.617248535,6292.25
295.916442871,6257.5
296.215667725,6199.625
296.514862061,6117.1
296.813995361,5940.725
297.11315918,5788.325
297.412322998,5685.925
297.711425781,5677.35
298.010559082,5814.375
298.309631348,5989.325
298.608734131,6159.175
298.907806396,6321.35
299.206848145,6429.05
299.505889893,6516.725
299.804901123,6601.675
300.103912354,6666.725
300.402954102,6739.35
300.701904297,6787.5
301.00088501,6851.55
301.299835205,6919.0
301.5987854,6943.75
301.897735596,7003.45
302.196624756,7064.55
302.495513916,7126.05
302.794403076,7150.8
303.093292236,7207.45
303.392120361,7273.775
303.690979004,7326.8
303.989837646,7368.175
304.288604736,7416.825
304.587402344,7395.65
304.886199951,7469.2
305.184967041,7469.925
305.483734131,7533.175
305.782501221,7555.875
306.081176758,7572.35
306.37991333,7610.525
306.678619385,7617.825
306.977294922,7645.075
307.275970459,7662.375
307.574645996,7671.975
307.873260498,7621.8
308.171875,7648.3
308.470489502,7649.0
308.769104004,7587.9
309.067687988,7584.6
309.366241455,7590.4
309.664794922,7557.5
309.963348389,7576.875
310.261871338,7579.75
310.560394287,7587.825
310.858856201,7611.65
311.157348633,7615.5
311.455810547,7643.125
311.754272461,7670.7
312.052703857,7710.825
312.351135254,7720.975
312.649536133,7724.675
312.947937012,7716.45
313.246307373,7751.9
313.544647217,7722.325
313.843017578,7702.6
314.141387939,7690.55
314.439697266,7709.425
314.738006592,7626.725
315.036315918,7585.475
315.334564209,7526.55
315.6328125,7467.2
315.931091309,7432.95
316.229309082,7317.45
316.527526855,7198.225
316.825744629,7192.85
317.123901367,7093.925
317.422088623,7033.975
317.720245361,7065.55
318.0184021,7059.7
318.316497803,7089.75
318.614654541,7130.275
318.912750244,7202.3
319.21081543,7213.775
319.50894165,7232.625
319.806945801,7227.675
320.104980469,7228.7
320.403045654,7223.25
320.701049805,7206.2
320.999023438,7184.7
321.297027588,7143.475
321.595001221,7140.625
321.892913818,7116.975
322.190887451,7059.825
322.488830566,7013.575
322.786712646,6964.0
323.084625244,6891.375
323.382507324,6876.65
323.680358887,6812.725
323.978210449,6727.35
324.276062012,6699.95
324.573852539,6634.525
324.871643066,6624.575
325.169464111,6576.475
325.467224121,6500.85
325.764984131,6443.625
326.062744141,6390.9
326.360473633,6310.925
326.658203125,6273.825
326.955871582,6220.475
327.253570557,6140.425
327.551239014,6127.55
327.848907471,6065.475
328.146514893,5972.875
328.444152832,5932.125
328.741790771,5899.75
329.039367676,5838.7
329.336914062,5780.675
329.634521484,5741.3
329.932067871,5706.175
330.229553223,5616.225
330.527160645,5599.925
330.824615479,5541.9
331.12210083,5473.8
331.419586182,5391.775
331.717041016,5332.875
332.014465332,5263.375
332.311920166,5246.85
332.609313965,5192.875
332.906707764,5200.975
333.204101562,5172.45
333.501495361,5181.925
333.798828125,5239.45
334.096160889,5266.525
334.39352417,5315.9
334.690795898,5351.5
334.988098145,5391.675
335.285400391,5437.525
335.582641602,5442.725
335.879882812,5485.55
336.177124023,5494.05
336.474334717,5550.775
336.77154541,5549.45
337.068725586,5573.325
337.365905762,5570.225
337.66305542,5587.225
337.960205078,5607.85
338.257324219,5629.275
338.554443359,5617.475
338.8515625,5644.175
339.148590088,5646.4
339.445648193,5662.0
339.742736816,5613.45
340.039764404,5615.05
340.336761475,5582.525
340.63381958,5542.125
340.930755615,5518.575
341.227722168,5430.15
341.524688721,5373.35
341.821624756,5349.575
342.118560791,5340.675
342.415496826,5441.125
342.712402344,5552.175
343.009246826,5677.1
343.306121826,5781.1
343.602966309,5830.425
343.899810791,5888.9
344.196624756,5961.975
344.493438721,5975.925
344.79019165,6025.15
345.086975098,6070.7
345.383758545,6109.975
345.680480957,6110.375
345.977203369,6118.675
346.273956299,6163.125
346.570617676,6131.2
346.86730957,6184.425
347.163970947,6143.075
347.460601807,6204.925
347.757232666,6181.975
348.053894043,6190.825
348.350463867,6127.0
348.647064209,6102.975
348.943634033,6084.825
349.24017334,6099.95
349.536712646,6062.125
349.833251953,6068.475
350.129760742,6030.65
350.426208496,6019.6
350.722747803,6007.925
351.019195557,5997.65
351.315612793,5962.55
351.612060547,5919.025
351.908508301,5886.0
352.204864502,5862.775
352.501281738,5793.875
352.797637939,5733.55
353.093963623,5657.825
353.390319824,5619.8
353.686645508,5522.6
353.982940674,5473.625
354.27923584,5446.1
354.575531006,5399.4
354.871765137,5394.225
355.167999268,5361.75
355.464233398,5375.55
355.760437012,5396.15
356.056640625,5382.65
356.352813721,5409.05
356.648956299,5404.95
356.945129395,5402.975
357.241271973,5387.6
357.537384033,5421.05
357.833496094,5367.25
358.129577637,5355.85
358.425628662,5326.15
358.721679688,5317.675
359.017730713,5307.35
359.313720703,5242.3
359.609710693,5239.1
359.905761719,5173.125
360.201721191,5143.35
360.497650146,5098.65
360.793609619,5090.6
361.089538574,5001.2
361.385437012,4950.0
361.681365967,4886.0
361.977233887,4873.6
362.273071289,4830.775
362.568908691,4729.35
362.864746094,4604.65
363.160552979,4521.8
363.456359863,4356.975
363.752166748,4241.5
364.047912598,4160.15
364.343658447,4142.425
364.639434814,4164.3
364.935119629,4168.15
365.230834961,4267.175
365.526550293,4286.1
365.822174072,4291.8
366.117858887,4306.325
366.413482666,4361.125
366.709075928,4345.45
367.004730225,4290.1
367.300292969,4266.175
367.595855713,4311.0
367.891448975,4213.95
368.186981201,4138.8
368.482513428,4101.35
368.778015137,4090.375
369.073547363,4055.2
369.36895752,4061.25
369.664428711,3975.825
369.95993042,3900.425
370.255310059,3851.8
370.550720215,3821.55
370.846160889,3796.3
371.14151001,3751.65
371.436859131,3721.3
371.73223877,3717.1
372.027557373,3682.0
372.322875977,3636.5
372.618164062,3623.75
372.913482666,3571.325
373.208709717,3575.8
373.503967285,3506.475
373.799194336,3483.6
374.094421387,3495.1
374.389648438,3451.25
374.684844971,3451.825
374.979980469,3483.8
375.275146484,3491.325
375.570281982,3520.05
375.865386963,3511.0
376.160522461,3474.15
376.455596924,3482.525
376.750640869,3561.6
377.045715332,3557.425
377.340759277,3611.775
377.635772705,3654.15
377.93081665,3695.05
378.225769043,3736.6
378.520751953,3800.35
378.815734863,3763.65
379.110656738,3900.5
379.405548096,4058.625
379.700500488,3910.85
379.995391846,3733.625
380.290252686,3768.125
380.585083008,3858.25
380.879974365,3915.625
381.17477417,3818.025
381.469543457,3772.25
381.764404297,3764.075
382.059143066,3793.925
382.353912354,3871.1
382.648651123,3945.725
382.943389893,3954.775
383.238067627,3779.75
383.532775879,3782.675
383.827484131,3723.3
384.12210083,3747.05
384.416778564,3683.125
384.711425781,3610.425
385.006011963,3608.75
385.300628662,3614.25
385.595184326,3691.85
385.88973999,3755.975
386.184295654,3877.7
386.478820801,3927.825
386.77331543,4020.45
387.067840576,4103.6
387.362335205,4195.55
387.656768799,4262.25
387.951202393,4274.1
388.245635986,4340.6
388.540039062,4410.5
388.834472656,4477.25
389.128875732,4376.6
389.423187256,4187.35
389.717559814,4131.15
390.011871338,4236.35
390.306182861,4270.125
390.600463867,4261.9
390.894775391,4339.4
391.189025879,4360.025
391.48324585,4365.9
391.777526855,4410.975
392.071685791,4591.725
392.365875244,4662.175
392.660064697,4740.1
392.95425415,5046.875
393.248382568,5028.525
393.542510986,4598.9
393.836608887,4448.275
394.130706787,4444.0
394.424804688,4398.15
394.71887207,4516.5
395.012878418,4483.3
395.306915283,4386.8
395.600921631,4322.45
395.894927979,4302.25
396.188903809,4338.4
396.482879639,4339.0
396.776794434,4547.975
397.070739746,4493.75
397.364654541,4523.1
397.658538818,4862.3
397.952423096,4893.5
398.246307373,4846.775
398.540100098,5340.75
398.833953857,5220.825
399.127746582,4777.025
399.421508789,4792.7
399.715301514,4742.1
400.009063721,4635.65
400.30279541,4510.7
400.596496582,4449.225
400.890258789,4605.7
401.183929443,4675.975
401.47756958,4573.95
401.771240234,4353.75
402.064880371,4371.85
402.35848999,4426.7
402.652130127,4313.25
402.945678711,4388.75
403.239257812,4346.275
403.532775879,4284.4
403.82635498,4340.25
404.119842529,4249.075
404.413360596,4257.5
404.706848145,4309.375
405.000274658,4242.2
405.293762207,4303.775
405.587188721,4359.25
405.880584717,4207.5
406.17401123,4045.525
406.467407227,3864.225
406.760742188,3889.45
407.054107666,3921.725
407.347442627,3847.35
407.640716553,3820.125
407.934051514,3882.625
408.227325439,3950.7
408.520568848,4144.325
408.813842773,4228.35
409.107086182,4053.9
409.400238037,4006.2
409.693450928,3931.175
409.986633301,4042.15
410.279754639,3969.9
410.572875977,3705.35
410.86605835,3636.15
411.159118652,3639.775
411.452209473,3668.425
411.745330811,3543.725
412.038360596,3477.475
412.331390381,3488.45
412.624420166,3537.05
412.917388916,3446.475
413.210388184,3303.95
413.503387451,3269.8
413.796295166,3170.525
414.089233398,3011.475
414.382141113,2955.05
414.675048828,2925.95
414.967926025,2970.2
415.260803223,2934.475
415.55368042,2942.05
415.846466064,2908.325
416.139282227,2994.475
416.432098389,3089.25
416.724853516,3078.95
417.017608643,3032.725
417.31036377,3034.15
417.603088379,3152.025
417.895782471,3124.275
418.188476562,3107.425
418.481140137,3175.85
418.773803711,3232.825
419.066436768,3183.875
419.359039307,3261.65
419.651641846,3254.0
419.944244385,3257.15
420.236816406,3226.1
420.529327393,3401.425
420.821899414,3471.4
421.114379883,3401.125
421.406860352,3645.125
421.699371338,3844.125
421.991821289,3809.0
422.284240723,3617.325
422.576721191,3487.75
422.869110107,3391.65
423.161468506,3345.525
423.453857422,3372.65
423.74621582,3271.8
424.038543701,3140.075
424.330871582,3110.8
424.623168945,3071.825
424.915435791,3193.875
425.207702637,3138.75
425.499969482,3093.65
425.792205811,3041.45
426.084411621,2825.175
426.376617432,2892.375
426.668762207,2953.45
426.9609375,2862.425
427.253082275,2956.8
427.545196533,3334.775
427.837310791,3076.5
428.129425049,2829.325
428.421447754,2999.225
428.713531494,3014.4
429.005554199,3005.375
429.297576904,3000.45
429.589599609,3387.55
429.881561279,3681.0
430.173522949,3479.35
430.465484619,3437.15
430.757415771,3503.8
431.049316406,3301.675
431.341186523,3094.4
431.633117676,3005.15
431.924957275,2725.975
432.21673584,2650.325
432.508636475,2766.175
432.800415039,2788.925
433.092163086,2695.45
433.383972168,2664.0
433.675689697,3290.025
433.967437744,3731.325
434.259155273,2870.225
434.550872803,2608.025
434.842498779,2657.0
435.134185791,2773.4
435.425842285,2791.65
435.717437744,2702.725
436.009063721,2540.25
436.30065918,2677.825
436.592224121,2982.85
436.883758545,2803.6
437.175323486,2565.55
437.466827393,2542.875
437.758331299,2558.75
438.049804688,2567.7
438.341247559,2635.15
438.63269043,2696.575
438.924163818,2703.825
439.215515137,2654.85
439.50692749,2563.725
439.798309326,2573.625
440.089660645,2584.9
440.380981445,2501.025
440.672332764,2506.875
440.963623047,2737.9
441.254882812,3142.325
441.546173096,3300.775
441.837402344,3084.475
442.128631592,2925.125
442.41986084,2905.8
442.711029053,2786.975
443.002197266,2842.525
443.293365479,3015.5
443.584503174,3131.075
443.875610352,3102.325
444.166717529,2878.15
444.457794189,2925.4
444.748840332,2904.975
445.039916992,2870.475
445.330932617,2957.025
445.621948242,2805.35
445.912963867,2645.8
446.203918457,2824.95
446.494812012,3041.65
446.785827637,2862.2
447.076721191,2699.5
447.367584229,2681.25
447.658447266,2658.7
447.949371338,2700.45
448.24017334,2589.425
448.530975342,2534.25
448.821838379,2686.675
449.112579346,2764.65
449.40335083,2684.3
449.694152832,2716.55
449.984863281,2732.3
450.27557373,2666.4
450.56628418,2719.25
450.856933594,2731.675
451.147583008,2591.8
451.438262939,2498.425
451.728881836,2677.425
452.019470215,2776.825
452.310089111,2583.875
452.600646973,2608.475
452.891174316,2649.55
453.181732178,2487.4
453.472229004,2383.6
453.762695312,2494.9
454.053222656,2518.45
454.343658447,2394.35
454.634063721,2335.825
454.924530029,2487.15
455.214935303,2609.875
455.505279541,2673.375
455.795715332,2553.55
456.086029053,2372.425
456.376312256,2354.25
456.666687012,2387.4
456.956939697,2483.5
457.247192383,2476.825
457.537445068,2541.6
457.827728271,2701.725
458.117919922,2650.95
458.408081055,2572.925
458.698303223,2742.65
458.988433838,2676.95
459.278564453,2531.025
459.568725586,2766.425
459.858825684,2875.175
460.148864746,2594.0
460.438995361,2565.05
460.729034424,2614.5
461.019042969,2622.325
461.309082031,2801.75
461.599060059,2695.075
461.889007568,2280.55
462.179016113,2122.85
462.468933105,2328.75
462.75881958,2434.975
463.048736572,2201.05
463.338592529,2434.475
463.628448486,2757.375
463.918365479,2492.6
464.2081604,2634.175
464.497924805,2627.125
464.787780762,2708.675
465.077514648,2990.425
465.367218018,2648.65
465.657012939,2838.65
465.946685791,3204.375
466.236358643,2837.725
466.526092529,2373.875
466.815734863,2372.275
467.105316162,2298.175
467.394927979,2322.875
467.684570312,2203.3
467.974121094,2273.325
468.263671875,2375.925
468.553222656,2181.5
468.842773438,2091.375
469.132232666,1992.075
469.42175293,2027.4
469.711212158,2001.825
470.000640869,1884.25
470.290100098,1940.9
470.579498291,1978.8
470.868835449,1965.75
471.158294678,1940.175
471.447601318,1919.0
471.736907959,1981.425
472.026275635,2036.325
472.315551758,2031.75
472.604797363,2020.025
472.894104004,2137.875
473.183319092,2238.35
473.47253418,2230.95
473.761779785,2199.1
474.05090332,2145.325
474.340087891,2104.75
474.629241943,2044.05
474.918365479,2211.75
475.207427979,2448.45
475.496551514,2463.4
475.785614014,2228.25
476.074645996,2054.1
476.363708496,2140.975
476.652679443,2267.35
476.941650391,2106.525
477.230682373,1962.5
477.519622803,1956.025
477.808502197,2102.85
478.097412109,2328.675
478.386352539,2284.0
478.675201416,2052.75
478.964050293,1954.05
479.25289917,2129.2
479.541717529,2174.6
479.830474854,2032.275
480.11932373,2349.125
480.408050537,2502.425
480.696777344,2150.8
480.985534668,2042.15
481.274200439,2133.675
481.562866211,2344.45
481.851593018,2375.15
482.140197754,2310.6
482.428833008,2176.2
482.717468262,1985.975
483.006011963,2015.65
483.294586182,2125.225
483.5831604,2148.375
483.871673584,2028.075
484.16015625,2171.875
484.448699951,2368.525
484.7371521,2409.175
485.02557373,2410.05
485.314025879,2166.625
485.602416992,3382.4
485.890777588,11972.8
486.179199219,10688.675
486.467559814,2857.425
486.755859375,2075.075
487.044219971,2408.675
487.332519531,2588.075
487.620758057,2222.65
487.908966064,1981.9
488.197265625,1805.4
488.485473633,1732.125
488.773651123,1832.1
489.061859131,1811.225
489.350006104,1778.5
489.638122559,1723.125
489.926300049,1747.85
490.214355469,1703.775
490.502441406,1650.55
490.790527344,1591.95
491.078552246,1766.6
491.366546631,1755.825
491.654602051,1543.5
491.942565918,1611.775
492.230499268,1646.4
492.518493652,1618.6
492.806396484,1643.275
493.094268799,1563.075
493.382202148,1602.7
493.670074463,1705.0
493.957885742,1568.325
494.245727539,1571.725
494.533508301,1704.975
494.821289062,1615.225
495.109100342,1480.1
495.396850586,1433.325
495.684539795,1390.825
495.972290039,1575.675
496.25994873,1888.775
496.547607422,1893.275
496.835296631,1729.025
497.122894287,1439.75
497.410522461,1372.925
497.6980896,1376.875
497.985687256,1346.75
498.273223877,1437.625
498.560760498,1488.075
498.848266602,1509.9
499.135772705,1489.95
499.423217773,1523.625
499.710693359,1612.25
499.998138428,1564.675
500.285522461,1421.0
500.572937012,1356.775
500.860290527,1394.075
501.147644043,1488.8
501.434997559,1678.175
501.722290039,1573.25
502.00958252,1360.55
502.296875,1590.675
502.584106445,1570.95
502.871337891,1421.2
503.158599854,1488.9
503.445770264,1562.925
503.732910156,1526.8
504.020141602,1376.75
504.307220459,1354.7
504.594329834,1377.3
504.881469727,1326.35
505.168518066,1393.7
505.455535889,1453.125
505.742614746,1343.95
506.029632568,1274.55
506.316589355,1446.625
506.603637695,1518.525
506.890563965,1344.125
507.177459717,1212.4
507.464385986,1135.15
507.751312256,1336.5
508.038146973,1400.825
508.325012207,1285.05
508.611877441,1336.2
508.898681641,1336.0
509.185424805,1194.15
509.472259521,1163.825
509.759002686,1242.275
510.045715332,1263.7
510.332458496,1217.7
510.619140625,1269.125
510.905761719,1200.8
511.192504883,1183.75
511.479095459,1218.15
511.765686035,1180.025
512.052307129,1112.2
512.338928223,1067.15
512.625427246,1115.85
512.91204834,1164.975
513.198486328,1129.125
513.484985352,1126.125
513.77142334,1046.325
514.057922363,1086.625
514.344299316,1084.925
514.63079834,1053.15
514.917175293,1045.7
515.203552246,959.425
515.489868164,943.3
515.776245117,1043.275
516.0625,1084.275
516.348815918,998.2
516.635070801,1031.025
516.921325684,1080.65
517.207580566,1027.8
517.493774414,951.7
517.779968262,947.375
518.066101074,987.225
518.352294922,942.65
518.638366699,947.1
518.924499512,1011.875
519.210632324,1078.325
519.496643066,1054.925
519.782714844,965.475
520.068786621,943.15
520.354736328,898.25
520.640686035,861.55
520.926757812,907.575
521.212646484,978.525
521.498535156,981.0
521.784484863,931.9
522.0703125,879.375
522.356262207,887.65
522.642089844,955.55
522.927856445,944.45
523.213684082,943.875
523.499511719,936.1
523.78527832,969.875
524.070983887,1018.325
524.356750488,992.425
524.64239502,959.0
524.928039551,957.375
525.213806152,975.75
525.499389648,957.975
525.784973145,981.425
526.070617676,1020.3
526.356140137,992.875
526.641723633,997.775
526.927307129,1051.875
527.212768555,1061.725
527.498291016,1034.325
527.783752441,1039.4
528.069213867,1018.625
528.354675293,1039.05
528.640014648,1183.4
528.925476074,1236.55
529.21081543,1172.725
529.496154785,1153.225
529.781555176,1121.8
530.066833496,1144.925
530.352050781,1159.0
530.637390137,1135.175
530.922607422,1145.275
531.207824707,1140.05
531.493041992,1123.275
531.778198242,1187.275
532.063354492,1163.95
532.348571777,1122.5
532.633666992,1138.85
532.918762207,1203.5
533.203857422,1277.525
533.488891602,1295.2
533.773925781,1260.85
534.059020996,1239.975
534.343933105,1262.85
534.628967285,1232.275
534.91394043,1258.3
535.198852539,1257.475
535.483703613,1241.075
535.768676758,1194.925
536.053527832,1200.0
536.338317871,1163.9
536.62322998,1107.875
536.90802002,1078.725
537.192810059,1102.2
537.477539062,1169.55
537.762329102,1211.75
538.047058105,1230.25
538.331726074,1271.25
538.616455078,1256.375
538.901123047,1235.375
539.18572998,1277.6
539.470397949,1278.425
539.755004883,1273.4
540.039550781,1234.75
540.32409668,1210.5
540.608703613,1235.9
540.893188477,1313.575
541.17767334,1343.975
541.462158203,1337.525
541.746643066,1289.5
542.031066895,1325.925
542.315429688,1362.675
542.59979248,1362.625
542.884216309,1354.1
543.168579102,1336.325
543.452941895,1344.6
543.737243652,1390.675
544.021484375,1430.525
544.305725098,1432.9
544.590026855,1397.9
544.874267578,1413.775
545.158447266,1469.875
545.442626953,1401.35
545.726806641,1303.7
546.010925293,1344.925
546.29510498,1369.7
546.579162598,1367.275
546.863220215,1397.8
547.147277832,1452.825
547.431335449,1522.275
547.715332031,1567.975
547.999328613,1673.125
548.283325195,1682.95
548.567260742,1545.45
548.851135254,1524.575
549.135070801,1507.775
549.419006348,1429.15
549.702819824,1501.925
549.986755371,1563.175
550.270507812,1537.35
550.554321289,1576.7
550.83807373,1592.225
551.121826172,1539.6
551.405517578,1564.875
551.689331055,1671.25
551.973022461,1860.525
552.256652832,1906.85
552.540344238,1830.9
552.823974609,1802.825
553.107543945,1803.125
553.391174316,1844.425
553.674743652,1893.3
553.958251953,1896.375
554.241821289,1906.2
554.525268555,1854.125
554.808776855,1837.975
555.092285156,2008.6
555.375671387,2087.775
555.659057617,2067.75
555.942504883,2103.6
556.225891113,2138.6
556.509216309,2106.4
556.792541504,2013.225
557.075866699,2092.85
557.359130859,2102.45
557.64239502,2112.375
557.92565918,2187.925
558.208862305,2166.425
558.49206543,2107.675
558.77532959,2115.45
559.058410645,2167.05
559.341552734,2157.075
559.624694824,2201.725
559.907775879,2255.975
560.190856934,2367.65
560.473937988,2348.925
560.756896973,2387.375
561.039978027,2417.6
561.322937012,2381.3
561.605895996,2387.1
561.88885498,2342.625
562.171813965,2325.0
562.454650879,2332.425
562.737548828,2364.1
563.020446777,2419.325
563.303283691,2444.65
563.58605957,2464.5
563.868896484,2484.75
564.151672363,2515.025
564.434387207,2556.175
564.717163086,2525.5
564.99987793,2540.025
565.282531738,2612.425
565.565185547,2556.35
565.847839355,2560.175
566.130432129,2656.425
566.413085938,2655.475
566.695678711,2652.25
566.978149414,2747.2
567.260681152,2870.75
567.543273926,2929.425
567.825744629,2860.275
568.108154297,2881.675
568.390686035,2985.25
568.673095703,3088.375
568.955505371,3132.575
569.237854004,3170.775
569.520202637,3400.425
569.802490234,3577.85
570.084838867,3556.125
570.367126465,3403.275
570.649414062,3430.225
570.93170166,3734.7
571.213928223,3801.65
571.496154785,3563.0
571.778381348,3767.25
572.06048584,3984.55
572.342590332,3589.95
572.624755859,3309.025
572.906860352,3354.025
573.188903809,3943.775
573.470947266,4152.025
573.752990723,3944.175
574.03503418,4023.075
574.317016602,4334.975
574.598937988,4173.125
574.88092041,4067.75
575.162841797,4223.4
575.444763184,3898.625
575.726623535,3692.3
576.008483887,3710.025
576.290344238,4073.95
576.572143555,4235.85
576.853881836,4285.025
577.135681152,4210.425
577.417419434,4246.425
577.699157715,4975.275
577.980895996,5130.25
578.262573242,4577.35
578.544128418,4163.35
578.825866699,4114.875
579.107421875,3846.025
579.388977051,3993.775
579.670593262,4331.6
579.952148438,4177.5
580.233642578,4298.6
580.515197754,4402.2
580.796691895,4125.1
581.078125,4282.425
581.359619141,5594.775
581.640991211,5641.55
581.922363281,4866.55
582.203796387,4909.875
582.485107422,4598.475
582.766418457,4275.55
583.047790527,4138.4
583.329040527,4065.975
583.610290527,3926.325
583.891540527,4032.2
584.172790527,4301.825
584.453918457,4316.475
584.735107422,4353.775
585.016235352,4735.875
585.297363281,4708.775
585.578552246,4544.625
585.859619141,4516.525
586.140625,4294.975
586.421630859,4173.475
586.702697754,4218.85
586.983642578,4420.65
587.264648438,4568.675
587.545654297,4515.925
587.826477051,4455.4
588.107421875,4309.425
588.388305664,4331.7
588.669189453,4430.525
588.950012207,4320.2
589.230834961,4211.775
589.511657715,4289.05
589.792358398,4370.025
590.073120117,4384.65
590.353881836,4349.75
590.63458252,4368.8
590.915283203,4343.225
591.195922852,4317.8
591.4765625,4369.6
591.757202148,4424.8
592.037780762,4410.1
592.31829834,4400.1
592.598937988,4600.95
592.879394531,4737.475
593.159912109,4638.525
593.440429688,4608.45
593.720825195,4581.875
594.001281738,4571.7
594.281677246,4494.85
594.562072754,4517.875
594.842407227,4595.975
595.122802734,4645.825
595.403137207,4626.875
595.683410645,4598.025
595.963623047,4614.475
596.243896484,4566.375
596.524169922,4564.2
596.804382324,4576.025
597.084533691,4594.225
597.364746094,4641.9
597.644836426,4663.35
597.924987793,4634.475
598.205078125,4618.9
598.485107422,4654.45
598.765197754,4751.6
599.045227051,4811.125
599.325195312,4722.425
599.605224609,4707.7
599.885192871,4707.25
600.165100098,4761.575
600.445007324,4733.25
600.724914551,4714.75
601.004760742,4737.725
601.284667969,4772.825
601.56451416,4738.85
601.844238281,4743.7
602.124084473,4748.15
602.403808594,4762.95
602.683532715,4806.075
602.963256836,4763.6
603.242919922,4803.95
603.522583008,4844.7
603.802246094,4833.975
604.081848145,4806.3
604.36138916,4803.15
604.641052246,4816.45
604.920532227,4794.175
605.200073242,4835.175
605.479614258,4865.475
605.759094238,4881.15
606.038574219,4875.475
606.317932129,4822.5
606.597412109,4838.4
606.87677002,4857.3
607.15612793,4902.2
607.435546875,4896.925
607.714782715,4898.65
607.99407959,4871.325
608.273376465,4867.975
608.552612305,4878.9
608.831848145,4887.725
609.111083984,4888.65
609.390258789,4887.75
609.669433594,4885.225
609.948608398,4937.525
610.227722168,4917.9
610.506713867,4864.6
610.785888672,4910.275
611.064880371,4879.125
611.34387207,4885.175
611.622924805,4904.925
611.901916504,4906.825
612.180847168,4861.7
612.459777832,4872.775
612.738647461,4870.1
613.01751709,4861.475
613.296447754,4809.0
613.575317383,4785.375
613.854064941,4727.95
614.132873535,4651.325
614.411621094,4612.3
614.690368652,4593.15
614.969177246,4538.95
615.247802734,4463.725
615.526489258,4465.4
615.805175781,4364.7
616.08380127,4249.375
616.362365723,4192.7
616.640991211,4143.775
616.919555664,4102.2
617.198059082,4199.175
617.4765625,4446.475
617.755126953,4570.05
618.033569336,4579.0
618.311950684,4611.125
618.590454102,4590.45
618.868774414,4576.775
619.147155762,4576.125
619.425598145,4556.225
619.703857422,4587.925
619.982177734,4582.625
620.260498047,4590.725
620.538757324,4566.475
620.816955566,4548.0
621.095214844,4514.925
621.373413086,4540.925
621.651550293,4584.75
621.929748535,4627.1
622.207824707,4607.85
622.485900879,4601.6
622.764038086,4591.925
623.042053223,4627.625
623.320007324,4642.425
623.598083496,4653.55
623.876037598,4644.85
624.153991699,4661.225
624.432006836,4673.0
624.709838867,4674.8
624.987731934,4656.175
625.265563965,4641.25
625.543395996,4689.775
625.821228027,4734.85
626.098999023,4721.0
626.376831055,4768.95
626.654541016,4788.65
626.932250977,4815.225
627.209960938,4850.5
627.487670898,4869.5
627.765319824,4880.6
628.04296875,4863.625
628.320495605,4903.475
628.598083496,4907.0
628.875671387,4914.025
629.153259277,4942.425
629.430725098,4991.525
629.708251953,4973.075
629.985656738,4999.725
630.263122559,5037.65
630.540588379,5061.55
630.817932129,5099.7
631.095275879,5125.65
631.372680664,5154.75
631.649963379,5189.525
631.927246094,5224.575
632.204589844,5237.4
632.481811523,5286.275
632.759033203,5385.6
633.036254883,5378.825
633.313415527,5448.3
633.590576172,5511.75
633.867736816,5586.225
634.144836426,5632.025
634.421875,5676.725
634.698913574,5728.4
634.976013184,5756.15
635.252990723,5833.1
635.529968262,5863.775
635.807006836,5932.55
636.08392334,5917.6
636.360839844,5839.475
636.637756348,5747.025
636.914611816,5712.975
637.191467285,5706.3
637.468261719,5771.95
637.745056152,5719.375
638.021789551,5731.375
638.298583984,5756.25
638.575317383,5793.8
638.851989746,5797.325
639.12878418,5794.375
639.405395508,5781.375
639.682006836,5795.2
639.958618164,5799.65
640.235229492,5794.125
640.511779785,5824.575
640.788330078,5813.825
641.064880371,5797.025
641.341308594,5768.725
641.617797852,5754.275
641.894226074,5761.7
642.170654297,5786.15
642.44708252,5789.35
642.723388672,5766.275
642.999755859,5770.375
643.276123047,5782.975
643.552429199,5736.575
643.828674316,5764.85
644.104919434,5730.275
644.381164551,5723.75
644.657348633,5733.825
644.933532715,5691.65
645.209716797,5708.025
645.485839844,5702.475
645.761901855,5692.775
646.038024902,5691.575
646.314086914,5701.15
646.590087891,5685.125
646.866149902,5700.075
647.142150879,5661.8
647.41809082,5632.1
647.694030762,5630.1
647.969970703,5637.375
648.245788574,5629.575
648.521728516,5633.075
648.797546387,5621.825
649.073303223,5649.775
649.349182129,5610.325
649.624938965,5589.4
649.900634766,5591.375
650.176391602,5600.35
650.452087402,5568.275
650.727783203,5567.975
651.003479004,5540.025
651.279052734,5559.775
651.554626465,5524.05
651.83026123,5533.775
652.105773926,5519.85
652.381286621,5499.175
652.656860352,5497.2
652.932312012,5511.35
653.207763672,5504.1
653.483215332,5528.625
653.758605957,5516.675
654.033935547,5520.525
654.309326172,5515.975
654.584716797,5521.475
654.859985352,5504.25
655.135253906,5532.8
655.410583496,5519.6
655.685791016,6370.075
655.9609375,9959.8
656.236206055,9697.825
656.511291504,6402.975
656.786437988,5629.25
657.061645508,5534.875
657.336669922,5512.6
657.611694336,5535.625
657.886779785,5536.95
658.161804199,5549.525
658.436828613,5524.575
658.711791992,5534.875
658.986755371,5544.7
659.261657715,5535.475
659.536621094,5532.625
659.811401367,5508.375
660.086303711,5539.975
660.36114502,5505.05
660.635864258,5518.3
660.910644531,5543.025
661.185424805,5549.575
661.460205078,5542.925
661.734863281,5522.075
662.009521484,5542.65
662.284179688,5505.275
662.558776855,5549.6
662.833435059,5559.9
663.108032227,5574.4
663.382568359,5540.675
663.657043457,5584.325
663.93157959,5595.925
664.206054688,5563.175
664.48046875,5589.45
664.755004883,5609.575
665.02935791,5615.125
665.303710938,5620.75
665.578125,5626.2
665.852416992,5597.975
666.126708984,5609.6
666.401062012,5619.125
666.675292969,5628.325
666.949462891,5618.85
667.223754883,5612.725
667.497924805,5647.425
667.772094727,5644.8
668.046264648,5607.575
668.3203125,5639.15
668.594421387,5663.575
668.868469238,5661.75
669.14251709,5656.675
669.416503906,5666.025
669.690551758,5649.175
669.964477539,5653.025
670.23840332,5650.2
670.512329102,5659.625
670.786254883,5621.5
671.060058594,5662.95
671.333984375,5670.1
671.607788086,5684.875
671.881530762,5641.35
672.155334473,5664.6
672.429077148,5681.225
672.702758789,5683.65
672.97644043,5679.95
673.25012207,5673.2
673.523742676,5650.3
673.797302246,5654.1
674.070922852,5686.35
674.344482422,5667.475
674.618041992,5679.575
674.891601562,5657.925
675.165100098,5661.425
675.438476562,5644.8
675.711975098,5653.225
675.985412598,5648.6
676.258789062,5643.175
676.532165527,5661.9
676.805480957,5622.575
677.078796387,5651.0
677.352111816,5652.375
677.625366211,5639.225
677.898620605,5616.85
678.171875,5660.95
678.445007324,5621.15
678.718200684,5646.65
678.991394043,5609.2
679.264404297,5645.025
679.537536621,5623.75
679.81060791,5625.6
680.083679199,5633.05
680.356689453,5603.675
680.629699707,5602.925
680.902648926,5596.425
681.175598145,5613.6
681.448547363,5632.375
681.721435547,5593.05
681.99420166,5600.025
682.267150879,5569.825
682.539916992,5616.925
682.812744141,5574.475
683.085510254,5540.725
683.358215332,5562.225
683.63092041,5533.15
683.903625488,5527.7
684.176330566,5549.725
684.448913574,5509.675
684.721557617,5485.6
684.99420166,5537.15
685.266662598,5507.125
685.539245605,5503.15
685.811767578,5536.2
686.084289551,5526.125
686.356689453,5523.375
686.629150391,5568.075
686.901550293,5562.375
687.17401123,5536.125
687.446350098,5559.5
687.718688965,5554.025
687.990966797,5570.575
688.263305664,5566.4
688.535522461,5531.775
688.807739258,5527.05
689.079956055,5553.5
689.352172852,5557.95
689.624328613,5528.875
689.896484375,5530.125
690.168518066,5520.05
690.440612793,5537.225
690.71270752,5536.75
690.984741211,5534.925
691.256713867,5539.1
691.528747559,5532.65
691.800720215,5544.25
692.072631836,5525.55
692.344543457,5550.325
692.616394043,5533.075
692.888244629,5525.5
693.160095215,5545.8
693.431945801,5555.475
693.703674316,5513.9
693.975463867,5504.2
694.247131348,5542.15
694.518859863,5497.3
694.790588379,5527.775
695.062255859,5514.65
695.33380127,5493.625
695.60546875,5490.125
695.87701416,5488.575
696.148498535,5495.35
696.42010498,5505.85
696.691589355,5502.525
696.96307373,5515.025
697.234558105,5530.825
697.50592041,5502.85
697.777282715,5506.575
698.048706055,5507.05
698.320068359,5517.675
698.591308594,5487.825
698.862670898,5486.0
699.133972168,5518.875
699.405151367,5485.35
699.676391602,5506.75
699.947570801,5486.5
700.21875,5476.025
700.489868164,5468.35
700.761047363,5467.825
701.032104492,5483.95
701.303100586,5431.825
701.57421875,5472.1
701.845214844,5474.725
702.116149902,5453.975
702.387207031,5465.025
702.65814209,5457.75
702.928955078,5472.575
703.199951172,5423.275
703.47076416,5424.825
703.741577148,5401.8
704.012451172,5430.975
704.28314209,5412.025
704.553955078,5418.85
704.824707031,5432.0
705.095397949,5440.2
705.366027832,5411.475
705.63671875,5412.2
705.907348633,5397.075
706.17791748,5408.475
706.448486328,5400.45
706.719055176,5420.175
706.989562988,5383.125
707.260131836,5406.225
707.530517578,5417.925
707.800964355,5394.775
708.071411133,5355.75
708.341796875,5359.525
708.612182617,5354.175
708.882446289,5341.55
709.152893066,5351.4
709.423156738,5360.725
709.693359375,5329.525
709.963623047,5335.9
710.233825684,5338.85
710.503967285,5307.4
710.774169922,5309.675
711.044311523,5293.075
711.31439209,5275.425
711.584533691,5302.85
711.854553223,5294.875
712.124572754,5284.65
712.39465332,5252.1
712.664611816,5271.45
712.934509277,5305.25
713.204467773,5254.775
713.474365234,5272.0
713.74420166,5264.45
714.014099121,5278.025
714.283874512,5265.4
714.553710938,5266.55
714.823486328,5242.9
715.093200684,5226.825
715.362915039,5251.55
715.632629395,5215.125
715.902282715,5210.5
716.171875,5194.425
716.441589355,5187.225
716.711181641,5177.775
716.980712891,5185.825
717.250244141,5170.275
717.519775391,5166.425
717.78918457,5185.0
718.058654785,5187.625
718.328125,5215.1
718.597473145,5166.125
718.866882324,5153.75
719.136230469,5153.425
719.405578613,5161.25
719.674865723,5155.35
719.944152832,5155.75
720.213439941,5123.45
720.48260498,5158.3
720.75177002,5131.225
721.020996094,5128.275
721.290100098,5130.3
721.559204102,5104.725
721.828308105,5121.125
722.097351074,5129.775
722.366455078,5108.15
722.635437012,5112.875
722.904418945,5065.0
723.173400879,5085.5
723.442321777,5093.25
723.711181641,5076.175
723.980102539,5089.45
724.248962402,5082.175
724.51776123,5072.025
724.786560059,5069.175
725.055358887,5073.575
725.324035645,5061.025
725.592834473,5068.8
725.86151123,5028.125
726.130187988,5039.55
726.398803711,5018.55
726.667419434,5005.425
726.935974121,5020.975
727.204528809,4988.0
727.473083496,5011.25
727.741638184,4973.6
728.010070801,4941.775
728.278564453,4955.875
728.546936035,4954.85
728.815368652,4904.775
729.08380127,4861.2
729.352111816,4842.075
729.620361328,4788.725
729.88873291,4831.4
730.156982422,4854.475
730.425231934,4848.1
730.693481445,4839.625
730.961669922,4867.2
731.229797363,4879.85
731.49798584,4895.425
731.766113281,4933.2
732.034118652,4971.775
732.302246094,4986.15
732.570251465,5004.0
732.838256836,5006.425
733.106262207,5065.6
733.374145508,5064.375
733.642089844,5103.025
733.909973145,5125.725
734.177856445,5168.425
734.445678711,5208.15
734.713562012,5262.1
734.981323242,5250.025
735.249084473,5300.325
735.516845703,5370.7
735.784545898,5411.8
736.052185059,5434.9
736.319885254,5498.775
736.587524414,5513.075
736.855102539,5530.475
737.122619629,5621.6
737.390197754,5622.0
737.657714844,5695.7
737.925170898,5725.525
738.192749023,5782.625
738.460144043,5835.15
738.727539062,5857.9
738.994995117,5907.75
739.262329102,5938.675
739.529663086,6009.35
739.79699707,6028.125
740.06427002,6071.5
740.331481934,6096.725
740.598754883,6140.275
740.865905762,6147.7
741.133056641,6257.325
741.40032959,6238.4
741.667358398,6313.325
741.934448242,6309.375
742.201599121,6329.075
742.468566895,6384.075
742.735534668,6446.575
743.002563477,6450.725
743.26953125,6439.075
743.536437988,6492.575
743.803405762,6539.125
744.0703125,6533.225
744.337097168,6578.6
744.604003906,6536.275
744.870727539,6599.775
745.137512207,6596.375
745.40423584,6640.25
745.670959473,6631.075
745.93762207,6634.175
746.204284668,6621.025
746.470947266,6640.1
746.737548828,6625.1
747.004089355,6679.85
747.270751953,6678.675
747.53717041,6689.025
747.803710938,6690.75
748.070251465,6676.975
748.336608887,6658.15
748.603027344,6645.35
748.869445801,6656.75
749.135803223,6683.55
749.402099609,6671.9
749.668457031,6690.85
749.934753418,6676.3
750.20098877,6645.675
750.467224121,6679.4
750.733459473,6658.1
750.999572754,6630.775
751.26574707,6632.575
751.531860352,6610.8
751.797912598,6616.0
752.064025879,6618.025
752.330078125,6622.825
752.596069336,6611.275
752.862060547,6568.775
753.127990723,6594.575
753.393920898,6593.425
753.659912109,6550.15
753.925720215,6588.65
754.19152832,6558.225
754.457397461,6552.85
754.723144531,6511.075
754.988952637,6503.65
755.254699707,6521.7
755.520385742,6535.2
755.786071777,6534.65
756.051696777,6522.525
756.317382812,6474.15
756.582946777,6479.9
756.848510742,6519.1
757.114074707,6474.025
757.379577637,6469.75
757.645080566,6500.575
757.910583496,6500.3
758.175964355,6449.775
758.441345215,6462.525
758.706848145,6393.55
758.972106934,6401.1
759.237426758,6409.1
759.502807617,6436.875
759.768005371,6443.125
760.03326416,6427.95
760.298522949,6379.0
760.563659668,6419.475
760.828857422,6386.125
761.093994141,6411.15
761.359130859,6380.675
761.624206543,6369.05
761.889282227,6342.575
762.15423584,6342.7
762.419250488,6356.45
762.684265137,6326.225
762.949157715,6309.025
763.214050293,6332.1
763.479003906,6321.875
763.743835449,6318.025
764.008666992,6300.525
764.2734375,6305.2
764.538208008,6339.65
764.802978516,6366.225
765.067687988,6326.325
765.332397461,6348.275
765.597045898,6316.825
765.861694336,6324.2
766.126342773,6318.375
766.390930176,6318.05
766.655395508,6303.925
766.920043945,6287.15
767.184509277,6277.4
767.448974609,6311.575
767.713439941,6267.725
767.977783203,6245.525
768.2421875,6284.9
768.506591797,6252.35
768.770874023,6329.025
769.03515625,6289.7
769.299499512,6314.45
769.563720703,6304.95
769.827941895,6284.925
770.092163086,6304.225
770.356323242,6286.375
770.620483398,6333.5
770.88458252,6329.225
771.148681641,6321.125
771.412719727,6334.45
771.676757812,6324.475
771.940734863,6313.75
772.204711914,6313.875
772.468688965,6306.975
772.73260498,6321.625
772.996459961,6326.6
773.260314941,5623.45
773.524169922,759.675
773.787963867,139.775
774.051696777,121.525
774.315551758,119.275
774.579223633,123.0
774.842895508,121.15
775.106567383,120.5
775.370239258,115.975
775.633789062,125.425
775.897399902,123.125
776.160949707,121.225
776.424499512,119.725
776.687988281,121.55
776.951477051,127.1
777.214904785,120.45
777.47833252,119.9
