191.299911499,99.075
191.603515625,101.75
191.907119751,95.35
192.210693359,106.575
192.514251709,99.45
192.817810059,103.625
193.121368408,101.725
193.42489624,106.425
193.728408813,99.95
194.031936646,99.275
194.33543396,93.2
194.638916016,111.75
194.94241333,96.775
195.245880127,98.075
195.549331665,93.25
195.852767944,98.675
196.156204224,176.675
196.459625244,169.475
196.763015747,174.075
197.066436768,183.775
197.369812012,169.15
197.673187256,175.125
197.9765625,171.375
198.279922485,173.225
198.583251953,166.85
198.886581421,170.9
199.18989563,175.05
199.493209839,174.675
199.79649353,164.55
200.09979248,177.575
200.403076172,175.525
200.706314087,173.5
201.009567261,172.425
201.312820435,176.15
201.616027832,163.65
201.919235229,161.075
202.222457886,167.9
202.525634766,169.6
202.828826904,161.85
203.132003784,162.575
203.435150146,166.5
203.738296509,164.95
204.041412354,166.225
204.344558716,168.25
204.647659302,169.4
204.950759888,168.725
205.253845215,171.625
205.556930542,167.375
205.859985352,169.075
206.163024902,165.775
206.466079712,167.25
206.769104004,177.875
207.072113037,169.05
207.375137329,169.55
207.678131104,165.9
207.981109619,169.725
208.284088135,164.85
208.587036133,167.35
208.889984131,172.95
209.19291687,174.1
209.495849609,173.925
209.798751831,171.575
210.101654053,174.4
210.404556274,176.95
210.707427979,174.75
211.010269165,180.35
211.31312561,177.15
211.615982056,176.6
211.918807983,180.525
212.221618652,174.725
212.524429321,174.05
212.827224731,179.6
213.130004883,178.275
213.432769775,180.9
213.735534668,182.225
214.038269043,186.2
214.341003418,185.025
214.643737793,183.675
214.946456909,186.8
215.249145508,190.55
215.551834106,192.025
215.854507446,193.8
216.157165527,190.525
216.45980835,194.275
216.762451172,197.55
217.065078735,198.525
217.36769104,198.175
217.670303345,199.0
217.972885132,206.1
218.275466919,211.35
218.578048706,209.175
218.880599976,231.425
219.183120728,240.9
219.485656738,257.525
219.788192749,291.95
220.090682983,323.8
220.393188477,375.725
220.695663452,429.625
220.998138428,487.175
221.300582886,565.55
221.603042603,621.3
221.905487061,705.325
222.207901001,789.8
222.510299683,885.55
222.812728882,991.075
223.115097046,1091.7
223.41746521,1196.4
223.719848633,1291.05
224.022171021,1385.75
224.324508667,1497.05
224.626846313,1617.175
224.929168701,1709.625
225.231460571,1830.625
225.533737183,1922.225
225.836013794,2024.7
226.138290405,2108.0
226.440536499,2200.475
226.742767334,2286.05
227.044998169,2341.5
227.347213745,2440.775
227.649429321,2490.325
227.951629639,2529.775
228.253799438,2588.025
228.555953979,2644.2
228.858123779,2688.5
229.160263062,2727.95
229.462371826,2728.25
229.764511108,2765.6
230.066619873,2769.65
230.36869812,2786.575
230.670776367,2790.15
230.972854614,2840.35
231.274902344,2871.975
231.576950073,2885.925
231.878967285,2870.825
232.180999756,2907.5
232.48298645,2924.525
232.784988403,2938.225
233.086975098,2932.7
233.388946533,2951.6
233.69090271,2983.6
233.992858887,2969.0
234.294769287,2947.475
234.596694946,2931.875
234.898605347,2932.0
235.200500488,2904.575
235.502380371,2879.075
235.804244995,2858.625
236.106109619,2803.65
236.407958984,2766.65
236.709777832,2719.6
237.011581421,2677.775
237.313400269,2601.9
237.615203857,2560.65
237.916976929,2534.25
238.21875,2449.125
238.520507812,2390.925
238.822250366,2324.825
239.12399292,2269.6
239.425704956,2220.9
239.727401733,2130.95
240.02911377,2084.125
240.330780029,2009.575
240.632446289,1959.5
240.93409729,1867.275
241.23576355,1817.925
241.537384033,1767.95
241.839004517,1699.4
242.140594482,1635.5
242.442199707,1589.825
242.743774414,1513.625
243.045333862,1459.625
243.346923828,1405.375
243.648452759,1342.375
243.949966431,1280.75
244.251495361,1245.9
244.552993774,1183.325
244.854492188,1132.175
245.155975342,1080.225
245.457443237,1038.825
245.758880615,988.725
246.060333252,943.775
246.36177063,887.975
246.66317749,855.825
246.964569092,803.975
247.265945435,769.45
247.567337036,739.3
247.86869812,711.85
248.170059204,677.45
248.471389771,657.375
248.772705078,624.225
249.074035645,609.525
249.375335693,584.175
249.676620483,564.225
249.977890015,553.5
250.279159546,538.4
250.58039856,524.825
250.881637573,493.425
251.182876587,487.45
251.484069824,472.375
251.785263062,459.425
252.086456299,459.3
252.387619019,436.8
252.688781738,425.9
252.989929199,423.8
253.291061401,423.25
253.592178345,418.1
253.893280029,401.175
254.194366455,404.975
254.49546814,397.175
254.796524048,386.55
255.097579956,383.325
255.398620605,373.675
255.699645996,381.125
256.000640869,365.4
256.30166626,370.8
256.602661133,363.725
256.903656006,362.675
257.204589844,363.3
257.505523682,357.925
257.80645752,360.1
258.107391357,359.55
258.408294678,348.15
258.709228516,358.4
259.010070801,349.375
259.310943604,350.475
259.611846924,352.1
259.912658691,356.6
260.213500977,360.15
260.514343262,357.075
260.815124512,362.575
261.115936279,363.025
261.416717529,374.925
261.717468262,365.8
262.018218994,366.3
262.318969727,383.625
262.619689941,390.725
262.920410156,401.175
263.221130371,412.9
263.521789551,424.075
263.822479248,434.75
264.123138428,448.05
264.42376709,461.275
264.72442627,472.3
265.025054932,472.075
265.325622559,507.4
265.626251221,523.775
265.926818848,538.075
266.227386475,545.55
266.527954102,564.325
266.828460693,589.425
267.12902832,591.975
267.429534912,616.675
267.730010986,642.525
268.030517578,662.0
268.330993652,688.175
268.631439209,714.925
268.931915283,735.9
269.232299805,772.825
269.532745361,803.075
269.8331604,825.875
270.133544922,853.15
270.433929443,901.325
270.734313965,937.5
271.034637451,978.55
271.334991455,1010.3
271.635314941,1072.275
271.935638428,1108.675
272.235931396,1183.975
272.536254883,1232.0
272.836486816,1284.0
273.136749268,1371.9
273.437011719,1459.5
273.737213135,1533.325
274.037445068,1604.05
274.337677002,1693.55
274.6378479,1790.075
274.938049316,1897.9
275.238220215,1994.5
275.538360596,2112.85
275.838500977,2210.8
276.138641357,2353.65
276.438751221,2445.875
276.738830566,2561.425
277.03894043,2677.05
277.338989258,2821.075
277.639038086,2965.4
277.939056396,3090.175
278.239105225,3185.125
278.539093018,3349.025
278.839141846,3451.425
279.139129639,3588.325
279.439086914,3738.025
279.739044189,3862.625
280.039001465,4007.85
280.338928223,4138.675
280.63885498,4236.15
280.938781738,4400.7
281.238647461,4529.25
281.538513184,4643.8
281.838409424,4761.4
282.138244629,4873.225
282.438079834,5005.6
282.737945557,5109.2
283.037719727,5185.275
283.337524414,5319.175
283.637298584,5414.25
283.937072754,5515.75
284.236816406,5601.025
284.536560059,5675.775
284.836303711,5747.4
285.136016846,5910.475
285.43572998,5988.25
285.735412598,6035.55
286.035064697,6111.1
286.334747314,6231.5
286.634368896,6289.125
286.933990479,6331.2
287.233642578,6301.975
287.533203125,6409.05
287.832824707,6423.575
288.132385254,6375.9
288.431945801,6339.4
288.731506348,6276.425
289.031036377,6171.6
289.330566406,6121.1
289.630065918,6141.6
289.92956543,6158.475
290.229034424,6284.25
290.528503418,6461.825
290.827941895,6641.6
291.127380371,6795.175
291.42678833,6927.0
291.726226807,7077.8
292.025604248,7156.725
292.324981689,7217.65
292.624359131,7248.875
292.923736572,7286.05
293.223052979,7321.875
293.522369385,7356.6
293.821685791,7318.675
294.12097168,7366.575
294.420257568,7321.625
294.719543457,7303.675
295.018768311,7361.35
295.318023682,7297.1
295.617248535,7241.1
295.916442871,7229.3
296.215667725,7178.625
296.514862061,7084.025
296.813995361,6868.7
297.11315918,6698.825
297.412322998,6621.525
297.711425781,6580.075
298.010559082,6717.275
298.309631348,6934.25
298.608734131,7122.7
298.907806396,7333.75
299.206848145,7480.375
299.505889893,7545.925
299.804901123,7664.275
300.103912354,7735.475
300.402954102,7811.375
300.701904297,7871.75
301.00088501,7964.125
301.299835205,8019.35
301.5987854,8098.875
301.897735596,8148.325
302.196624756,8206.475
302.495513916,8284.55
302.794403076,8294.175
303.093292236,8375.975
303.392120361,8459.45
303.690979004,8532.75
303.989837646,8554.15
304.288604736,8629.825
304.587402344,8635.7
304.886199951,8667.325
305.184967041,8691.675
305.483734131,8770.175
305.782501221,8796.275
306.081176758,8809.225
306.37991333,8844.325
306.678619385,8878.15
306.977294922,8912.2
307.275970459,8895.925
307.574645996,8919.15
307.873260498,8896.975
308.171875,8918.725
308.470489502,8939.95
308.769104004,8869.725
309.067687988,8862.275
309.366241455,8879.6
309.664794922,8821.25
309.963348389,8839.6
310.261871338,8832.175
310.560394287,8859.425
310.858856201,8905.175
311.157348633,8942.75
311.455810547,8937.775
311.754272461,8941.45
312.052703857,9040.625
312.351135254,9041.1
312.649536133,9044.15
312.947937012,9041.7
313.246307373,9083.325
313.544647217,9069.475
313.843017578,9021.3
314.141387939,9016.0
314.439697266,9030.725
314.738006592,8963.25
315.036315918,8930.3
315.334564209,8843.0
315.6328125,8770.8
315.931091309,8721.75
316.229309082,8597.175
316.527526855,8462.925
316.825744629,8449.075
317.123901367,8325.975
317.422088623,8296.725
317.720245361,8313.475
318.0184021,8320.95
318.316497803,8360.575
318.614654541,8423.275
318.912750244,8496.925
319.21081543,8484.55
319.50894165,8525.625
319.806945801,8501.525
320.104980469,8529.625
320.403045654,8496.2
320.701049805,8505.025
320.999023438,8450.0
321.297027588,8431.4
321.595001221,8400.6
321.892913818,8375.025
322.190887451,8320.1
322.488830566,8250.6
322.786712646,8232.525
323.084625244,8108.925
323.382507324,8133.575
323.680358887,8029.5
323.978210449,7937.65
324.276062012,7906.0
324.573852539,7858.575
324.871643066,7799.25
325.169464111,7730.35
325.467224121,7684.775
325.764984131,7596.525
326.062744141,7545.7
326.360473633,7461.5
326.658203125,7419.575
326.955871582,7348.025
327.253570557,7251.7
327.551239014,7215.125
327.848907471,7167.05
328.146514893,7070.725
328.444152832,7037.125
328.741790771,6964.85
329.039367676,6907.95
329.336914062,6843.55
329.634521484,6796.525
329.932067871,6754.475
330.229553223,6650.325
330.527160645,6620.275
330.824615479,6571.875
331.12210083,6500.725
331.419586182,6381.4
331.717041016,6320.9
332.014465332,6251.05
332.311920166,6214.225
332.609313965,6155.25
332.906707764,6169.875
333.204101562,6126.65
333.501495361,6138.325
333.798828125,6206.15
334.096160889,6224.9
334.39352417,6293.525
334.690795898,6340.275
334.988098145,6377.8
335.285400391,6464.0
335.582641602,6452.775
335.879882812,6495.325
336.177124023,6495.275
336.474334717,6564.225
336.77154541,6567.825
337.068725586,6610.9
337.365905762,6612.2
337.66305542,6622.6
337.960205078,6621.625
338.257324219,6655.175
338.554443359,6663.175
338.8515625,6686.475
339.148590088,6669.0
339.445648193,6699.975
339.742736816,6654.425
340.039764404,6657.425
340.336761475,6611.175
340.63381958,6551.55
340.930755615,6519.1
341.227722168,6436.725
341.524688721,6338.75
341.821624756,6302.825
342.118560791,6330.95
342.415496826,6422.775
342.712402344,6540.425
343.009246826,6667.25
343.306121826,6795.45
343.602966309,6856.775
343.899810791,6945.275
344.196624756,7017.725
344.493438721,7038.725
344.79019165,7110.375
345.086975098,7138.175
345.383758545,7182.55
345.680480957,7145.025
345.977203369,7172.15
346.273956299,7210.55
346.570617676,7198.975
346.86730957,7211.8
347.163970947,7190.625
347.460601807,7244.025
347.757232666,7220.85
348.053894043,7239.55
348.350463867,7125.375
348.647064209,7111.025
348.943634033,7087.075
349.24017334,7097.65
349.536712646,7049.4
349.833251953,7038.225
350.129760742,7003.0
350.426208496,6985.625
350.722747803,6954.675
351.019195557,6945.15
351.315612793,6890.3
351.612060547,6827.3
351.908508301,6784.375
352.204864502,6711.5
352.501281738,6660.775
352.797637939,6594.65
353.093963623,6478.45
353.390319824,6428.6
353.686645508,6335.575
353.982940674,6265.2
354.27923584,6226.6
354.575531006,6123.225
354.871765137,6144.85
355.167999268,6091.425
355.464233398,6075.725
355.760437012,6064.175
356.056640625,6062.925
356.352813721,6061.2
356.648956299,6064.3
356.945129395,6061.025
357.241271973,6029.4
357.537384033,6072.9
357.833496094,5976.525
358.129577637,5973.675
358.425628662,5915.075
358.721679688,5897.65
359.017730713,5844.925
359.313720703,5772.675
359.609710693,5754.8
359.905761719,5664.475
360.201721191,5622.975
360.497650146,5564.65
360.793609619,5520.55
361.089538574,5438.65
361.385437012,5375.1
361.681365967,5276.075
361.977233887,5227.85
362.273071289,5150.925
362.568908691,5059.9
362.864746094,4916.975
363.160552979,4792.625
363.456359863,4618.9
363.752166748,4499.4
364.047912598,4386.55
364.343658447,4345.5
364.639434814,4386.925
364.935119629,4395.975
365.230834961,4429.925
365.526550293,4443.1
365.822174072,4437.2
366.117858887,4444.5
366.413482666,4473.85
366.709075928,4474.3
367.004730225,4374.8
367.300292969,4356.325
367.595855713,4394.225
367.891448975,4276.8
368.186981201,4194.675
368.482513428,4128.65
368.778015137,4080.675
369.073547363,4077.375
369.36895752,4049.875
369.664428711,3956.75
369.95993042,3847.8
370.255310059,3787.775
370.550720215,3738.225
370.846160889,3705.85
371.14151001,3666.425
371.436859131,3630.575
371.73223877,3614.125
372.027557373,3565.875
372.322875977,3494.625
372.618164062,3470.825
372.913482666,3414.3
373.208709717,3388.4
373.503967285,3334.2
373.799194336,3285.875
374.094421387,3276.525
374.389648438,3235.4
374.684844971,3227.5
374.979980469,3239.025
375.275146484,3239.925
375.570281982,3258.25
375.865386963,3258.275
376.160522461,3188.375
376.455596924,3207.025
376.750640869,3244.2
377.045715332,3256.525
377.340759277,3269.0
377.635772705,3314.8
377.93081665,3338.15
378.225769043,3377.275
378.520751953,3398.35
378.815734863,3360.75
379.110656738,3473.15
379.405548096,3601.775
379.700500488,3457.925
379.995391846,3291.025
380.290252686,3330.525
380.585083008,3397.425
380.879974365,3430.4
381.17477417,3356.375
381.469543457,3304.45
381.764404297,3263.975
382.059143066,3289.8
382.353912354,3348.35
382.648651123,3408.0
382.943389893,3372.975
383.238067627,3250.275
383.532775879,3240.0
383.827484131,3182.175
384.12210083,3189.25
384.416778564,3136.825
384.711425781,3070.025
385.006011963,3077.0
385.300628662,3063.85
385.595184326,3106.625
385.88973999,3173.175
386.184295654,3241.375
386.478820801,3304.725
386.77331543,3359.2
387.067840576,3427.25
387.362335205,3495.375
387.656768799,3540.05
387.951202393,3560.725
388.245635986,3616.625
388.540039062,3654.075
388.834472656,3700.5
389.128875732,3621.775
389.423187256,3450.775
389.717559814,3410.575
390.011871338,3493.1
390.306182861,3513.5
390.600463867,3513.125
390.894775391,3567.475
391.189025879,3585.15
391.48324585,3568.1
391.777526855,3595.775
392.071685791,3759.65
392.365875244,3831.025
392.660064697,3866.025
392.95425415,4129.75
393.248382568,4099.325
393.542510986,3763.075
393.836608887,3622.25
394.130706787,3636.75
394.424804688,3572.575
394.71887207,3675.6
395.012878418,3656.825
395.306915283,3576.025
395.600921631,3519.95
395.894927979,3509.45
396.188903809,3527.575
396.482879639,3532.125
396.776794434,3692.925
397.070739746,3676.65
397.364654541,3691.625
397.658538818,3957.7
397.952423096,3999.375
398.246307373,3952.8
398.540100098,4362.25
398.833953857,4257.625
399.127746582,3900.25
399.421508789,3918.3
399.715301514,3863.5
400.009063721,3808.65
400.30279541,3701.8
400.596496582,3645.075
400.890258789,3778.1
401.183929443,3840.2
401.47756958,3741.775
401.771240234,3592.5
402.064880371,3602.95
402.35848999,3630.325
402.652130127,3570.7
402.945678711,3627.825
403.239257812,3577.575
403.532775879,3543.375
403.82635498,3580.45
404.119842529,3530.725
404.413360596,3531.325
404.706848145,3568.825
405.000274658,3523.7
405.293762207,3591.8
405.587188721,3639.65
405.880584717,3534.85
406.17401123,3396.775
406.467407227,3234.55
406.760742188,3246.9
407.054107666,3264.275
407.347442627,3230.9
407.640716553,3235.7
407.934051514,3273.55
408.227325439,3330.0
408.520568848,3493.5
408.813842773,3579.45
409.107086182,3427.8
409.400238037,3404.275
409.693450928,3348.5
409.986633301,3446.475
410.279754639,3398.475
410.572875977,3164.15
410.86605835,3124.9
411.159118652,3150.625
411.452209473,3143.925
411.745330811,3060.675
412.038360596,2992.575
412.331390381,3019.05
412.624420166,3069.475
412.917388916,3014.25
413.210388184,2869.45
413.503387451,2863.85
413.796295166,2773.15
414.089233398,2653.5
414.382141113,2596.375
414.675048828,2580.65
414.967926025,2608.35
415.260803223,2572.3
415.55368042,2599.95
415.846466064,2571.875
416.139282227,2638.15
416.432098389,2741.075
416.724853516,2740.95
417.017608643,2700.35
417.31036377,2728.325
417.603088379,2813.55
417.895782471,2806.825
418.188476562,2790.725
418.481140137,2847.25
418.773803711,2898.025
419.066436768,2872.7
419.359039307,2955.375
419.651641846,2959.75
419.944244385,2952.075
420.236816406,2927.6
420.529327393,3099.9
420.821899414,3176.475
421.114379883,3122.05
421.406860352,3351.75
421.699371338,3524.925
421.991821289,3513.2
422.284240723,3337.325
422.576721191,3209.6
422.869110107,3140.175
423.161468506,3096.275
423.453857422,3133.15
423.74621582,3041.35
424.038543701,2926.4
424.330871582,2910.975
424.623168945,2863.85
424.915435791,2965.4
425.207702637,2962.35
425.499969482,2913.025
425.792205811,2862.225
426.084411621,2659.475
426.376617432,2731.425
426.668762207,2800.075
426.9609375,2700.8
427.253082275,2806.0
427.545196533,3158.8
427.837310791,2926.75
428.129425049,2699.05
428.421447754,2885.8
428.713531494,2883.175
429.005554199,2881.775
429.297576904,2894.975
429.589599609,3255.0
429.881561279,3534.15
430.173522949,3346.375
430.465484619,3327.875
430.757415771,3407.325
431.049316406,3192.5
431.341186523,3001.5
431.633117676,2911.625
431.924957275,2666.925
432.21673584,2568.475
432.508636475,2691.325
432.800415039,2730.05
433.092163086,2628.1
433.383972168,2602.875
433.675689697,3233.525
433.967437744,3666.925
434.259155273,2838.9
434.550872803,2590.45
434.842498779,2625.3
435.134185791,2739.525
435.425842285,2768.375
435.717437744,2668.075
436.009063721,2511.475
436.30065918,2657.475
436.592224121,2961.35
436.883758545,2791.575
437.175323486,2549.575
437.466827393,2533.825
437.758331299,2549.925
438.049804688,2567.65
438.341247559,2633.925
438.63269043,2714.675
438.924163818,2709.15
439.215515137,2664.225
439.50692749,2575.325
439.798309326,2593.45
440.089660645,2591.925
440.380981445,2515.575
440.672332764,2512.875
440.963623047,2762.225
441.254882812,3167.925
441.546173096,3329.325
441.837402344,3114.525
442.128631592,2946.225
442.41986084,2939.2
442.711029053,2826.65
443.002197266,2880.725
443.293365479,3060.8
443.584503174,3176.95
443.875610352,3140.175
444.166717529,2919.3
444.457794189,2956.175
444.748840332,2963.0
445.039916992,2908.15
445.330932617,3015.15
445.621948242,2867.1
445.912963867,2678.8
446.203918457,2906.35
446.494812012,3107.05
446.785827637,2928.95
447.076721191,2760.675
447.367584229,2748.4
447.658447266,2731.85
447.949371338,2767.95
448.24017334,2669.35
448.530975342,2607.25
448.821838379,2754.625
449.112579346,2831.175
449.40335083,2766.9
449.694152832,2800.25
449.984863281,2788.95
450.27557373,2746.65
450.56628418,2790.0
450.856933594,2832.125
451.147583008,2671.775
451.438262939,2582.7
451.728881836,2762.875
452.019470215,2851.05
452.310089111,2665.8
452.600646973,2684.7
452.891174316,2742.1
453.181732178,2579.75
453.472229004,2460.325
453.762695312,2565.0
454.053222656,2578.2
454.343658447,2464.425
454.634063721,2417.25
454.924530029,2572.55
455.214935303,2712.425
455.505279541,2768.325
455.795715332,2649.45
456.086029053,2451.925
456.376312256,2448.775
456.666687012,2478.5
456.956939697,2580.4
457.247192383,2584.675
457.537445068,2646.375
457.827728271,2821.95
458.117919922,2760.45
458.408081055,2691.425
458.698303223,2847.35
458.988433838,2781.425
459.278564453,2624.35
459.568725586,2898.5
459.858825684,3002.975
460.148864746,2709.6
460.438995361,2670.3
460.729034424,2723.3
461.019042969,2726.05
461.309082031,2925.05
461.599060059,2800.75
461.889007568,2385.725
462.179016113,2228.25
462.468933105,2433.45
462.75881958,2558.15
463.048736572,2299.0
463.338592529,2557.175
463.628448486,2893.25
463.918365479,2617.425
464.2081604,2787.65
464.497924805,2757.675
464.787780762,2874.05
465.077514648,3148.4
465.367218018,2776.075
465.657012939,2993.525
465.946685791,3362.3
466.236358643,2990.45
466.526092529,2494.95
466.815734863,2504.35
467.105316162,2434.525
467.394927979,2452.45
467.684570312,2322.95
467.974121094,2407.2
468.263671875,2517.875
468.553222656,2305.65
468.842773438,2207.4
469.132232666,2122.025
469.42175293,2141.2
469.711212158,2109.175
470.000640869,1991.3
470.290100098,2044.375
470.579498291,2082.725
470.868835449,2092.325
471.158294678,2057.225
471.447601318,2038.5
471.736907959,2101.25
472.026275635,2168.575
472.315551758,2153.45
472.604797363,2141.775
472.894104004,2276.075
473.183319092,2381.0
473.47253418,2362.475
473.761779785,2366.05
474.05090332,2294.05
474.340087891,2245.275
474.629241943,2194.525
474.918365479,2356.7
475.207427979,2627.25
475.496551514,2651.65
475.785614014,2398.8
476.074645996,2203.575
476.363708496,2293.225
476.652679443,2424.125
476.941650391,2264.65
477.230682373,2113.625
477.519622803,2113.1
477.808502197,2258.075
478.097412109,2531.725
478.386352539,2477.4
478.675201416,2223.25
478.964050293,2127.325
479.25289917,2300.35
479.541717529,2357.7
479.830474854,2223.7
480.11932373,2540.275
480.408050537,2715.8
480.696777344,2347.2
480.985534668,2244.125
481.274200439,2307.15
481.562866211,2561.475
481.851593018,2588.075
482.140197754,2538.1
482.428833008,2381.125
482.717468262,2177.725
483.006011963,2213.725
483.294586182,2325.525
483.5831604,2368.15
483.871673584,2242.425
484.16015625,2388.475
484.448699951,2614.75
484.7371521,2659.35
485.02557373,2678.525
485.314025879,2386.7
485.602416992,3749.05
485.890777588,13256.25
486.179199219,11813.975
486.467559814,3170.325
486.755859375,2307.7
487.044219971,2695.05
487.332519531,2878.25
487.620758057,2478.3
487.908966064,2217.025
488.197265625,2014.45
488.485473633,1921.8
488.773651123,2040.25
489.061859131,2028.45
489.350006104,1986.725
489.638122559,1928.6
489.926300049,1957.575
490.214355469,1904.8
490.502441406,1855.35
490.790527344,1797.65
491.078552246,1989.425
491.366546631,1981.9
491.654602051,1752.75
491.942565918,1837.05
492.230499268,1872.375
492.518493652,1840.725
492.806396484,1886.025
493.094268799,1788.6
493.382202148,1836.175
493.670074463,1947.075
493.957885742,1792.45
494.245727539,1792.225
494.533508301,1955.25
494.821289062,1846.25
495.109100342,1683.825
495.396850586,1636.1
495.684539795,1597.225
495.972290039,1823.5
496.25994873,2165.225
496.547607422,2174.925
496.835296631,1990.35
497.122894287,1659.025
497.410522461,1586.975
497.6980896,1582.0
497.985687256,1556.4
498.273223877,1669.625
498.560760498,1736.075
498.848266602,1761.775
499.135772705,1736.725
499.423217773,1785.625
499.710693359,1892.5
499.998138428,1825.95
500.285522461,1652.3
500.572937012,1573.2
500.860290527,1642.475
501.147644043,1748.25
501.434997559,1985.4
501.722290039,1836.7
502.00958252,1603.325
502.296875,1879.625
502.584106445,1859.225
502.871337891,1672.45
503.158599854,1758.65
503.445770264,1840.55
503.732910156,1810.45
504.020141602,1624.0
504.307220459,1608.175
504.594329834,1633.7
504.881469727,1571.675
505.168518066,1658.325
505.455535889,1720.65
505.742614746,1596.0
506.029632568,1533.125
506.316589355,1721.825
506.603637695,1817.675
506.890563965,1605.45
507.177459717,1436.075
507.464385986,1350.15
507.751312256,1599.25
508.038146973,1691.275
508.325012207,1526.475
508.611877441,1589.575
508.898681641,1596.325
509.185424805,1436.725
509.472259521,1388.575
509.759002686,1489.375
510.045715332,1515.35
510.332458496,1462.5
510.619140625,1529.475
510.905761719,1440.6
511.192504883,1428.875
511.479095459,1472.9
511.765686035,1425.95
512.052307129,1337.275
512.338928223,1273.95
512.625427246,1334.525
512.91204834,1407.675
513.198486328,1379.475
513.484985352,1351.35
513.77142334,1269.175
514.057922363,1318.0
514.344299316,1313.1
514.63079834,1280.225
514.917175293,1256.825
515.203552246,1166.9
515.489868164,1127.45
515.776245117,1268.95
516.0625,1301.9
516.348815918,1210.175
516.635070801,1247.675
516.921325684,1300.1
517.207580566,1237.5
517.493774414,1140.425
517.779968262,1149.625
518.066101074,1194.65
518.352294922,1141.9
518.638366699,1145.55
518.924499512,1232.525
519.210632324,1314.75
519.496643066,1275.925
519.782714844,1167.175
520.068786621,1142.1
520.354736328,1088.925
520.640686035,1041.4
520.926757812,1094.1
521.212646484,1177.975
521.498535156,1178.9
521.784484863,1132.275
522.0703125,1055.025
522.356262207,1064.3
522.642089844,1154.575
522.927856445,1148.225
523.213684082,1137.7
523.499511719,1123.325
523.78527832,1178.35
524.070983887,1235.075
524.356750488,1199.55
524.64239502,1171.675
524.928039551,1162.525
525.213806152,1179.575
525.499389648,1160.8
525.784973145,1197.025
526.070617676,1242.55
526.356140137,1207.6
526.641723633,1212.35
526.927307129,1278.825
527.212768555,1283.15
527.498291016,1260.35
527.783752441,1251.2
528.069213867,1239.175
528.354675293,1263.15
528.640014648,1432.5
528.925476074,1511.8
529.21081543,1430.65
529.496154785,1399.9
529.781555176,1373.4
530.066833496,1388.275
530.352050781,1402.975
530.637390137,1386.275
530.922607422,1381.975
531.207824707,1374.4
531.493041992,1366.575
531.778198242,1445.775
532.063354492,1412.5
532.348571777,1368.225
532.633666992,1382.95
532.918762207,1467.825
533.203857422,1555.525
533.488891602,1578.85
533.773925781,1525.4
534.059020996,1500.075
534.343933105,1520.175
534.628967285,1511.95
534.91394043,1520.55
535.198852539,1527.875
535.483703613,1505.2
535.768676758,1443.3
536.053527832,1445.2
536.338317871,1397.475
536.62322998,1345.825
536.90802002,1310.725
537.192810059,1335.85
537.477539062,1416.175
537.762329102,1461.8
538.047058105,1503.45
538.331726074,1542.5
538.616455078,1520.6
538.901123047,1498.225
539.18572998,1554.975
539.470397949,1560.25
539.755004883,1526.8
540.039550781,1495.475
540.32409668,1463.5
540.608703613,1499.575
540.893188477,1596.55
541.17767334,1623.125
541.462158203,1627.6
541.746643066,1564.75
542.031066895,1603.6
542.315429688,1655.125
542.59979248,1645.975
542.884216309,1625.675
543.168579102,1622.375
543.452941895,1635.375
543.737243652,1696.45
544.021484375,1734.525
544.305725098,1719.95
544.590026855,1708.975
544.874267578,1711.0
545.158447266,1797.475
545.442626953,1712.275
545.726806641,1583.75
546.010925293,1617.475
546.29510498,1657.9
546.579162598,1650.35
546.863220215,1691.475
547.147277832,1767.075
547.431335449,1852.075
547.715332031,1911.175
547.999328613,2026.05
548.283325195,2026.025
548.567260742,1877.825
548.851135254,1845.525
549.135070801,1816.125
549.419006348,1714.7
549.702819824,1830.9
549.986755371,1900.275
550.270507812,1856.6
550.554321289,1912.625
550.83807373,1913.975
551.121826172,1867.925
551.405517578,1890.675
551.689331055,2020.45
551.973022461,2256.4
552.256652832,2318.05
552.540344238,2214.675
552.823974609,2179.2
553.107543945,2175.3
553.391174316,2240.625
553.674743652,2304.125
553.958251953,2314.4
554.241821289,2313.125
554.525268555,2244.8
554.808776855,2238.95
555.092285156,2455.725
555.375671387,2530.45
555.659057617,2523.125
555.942504883,2558.525
556.225891113,2608.25
556.509216309,2556.0
556.792541504,2460.675
557.075866699,2539.5
557.359130859,2571.725
557.64239502,2565.5
557.92565918,2659.625
558.208862305,2645.975
558.49206543,2567.375
558.77532959,2592.475
559.058410645,2630.4
559.341552734,2620.55
559.624694824,2682.75
559.907775879,2765.725
560.190856934,2883.15
560.473937988,2879.75
560.756896973,2922.175
561.039978027,2961.35
561.322937012,2913.85
561.605895996,2896.9
561.88885498,2874.375
562.171813965,2865.35
562.454650879,2855.5
562.737548828,2914.175
563.020446777,2957.0
563.303283691,2985.55
563.58605957,3032.625
563.868896484,3050.525
564.151672363,3095.875
564.434387207,3130.05
564.717163086,3095.725
564.99987793,3133.3
565.282531738,3207.775
565.565185547,3140.525
565.847839355,3151.825
566.130432129,3281.325
566.413085938,3251.15
566.695678711,3260.45
566.978149414,3373.05
567.260681152,3532.5
567.543273926,3611.75
567.825744629,3497.675
568.108154297,3531.325
568.390686035,3699.85
568.673095703,3797.35
568.955505371,3872.45
569.237854004,3896.65
569.520202637,4170.85
569.802490234,4402.05
570.084838867,4383.475
570.367126465,4189.475
570.649414062,4211.625
570.93170166,4580.2
571.213928223,4691.125
571.496154785,4390.625
571.778381348,4630.95
572.06048584,4899.275
572.342590332,4413.05
572.624755859,4058.575
572.906860352,4125.375
573.188903809,4852.575
573.470947266,5096.7
573.752990723,4835.7
574.03503418,4969.625
574.317016602,5377.625
574.598937988,5144.7
574.88092041,5029.525
575.162841797,5207.425
575.444763184,4825.0
575.726623535,4538.25
576.008483887,4591.9
576.290344238,5021.975
576.572143555,5218.425
576.853881836,5291.825
577.135681152,5175.375
577.417419434,5245.1
577.699157715,6159.25
577.980895996,6350.95
578.262573242,5639.55
578.544128418,5150.475
578.825866699,5072.475
579.107421875,4761.55
579.388977051,4938.375
579.670593262,5372.025
579.952148438,5189.825
580.233642578,5295.9
580.515197754,5412.775
580.796691895,5091.1
581.078125,5277.15
581.359619141,6872.55
581.640991211,6967.0
581.922363281,5988.725
582.203796387,6037.775
582.485107422,5674.675
582.766418457,5271.025
583.047790527,5106.025
583.329040527,4975.15
583.610290527,4848.175
583.891540527,4958.475
584.172790527,5317.675
584.453918457,5309.35
584.735107422,5365.175
585.016235352,5845.975
585.297363281,5798.25
585.578552246,5586.75
585.859619141,5537.45
586.140625,5284.025
586.421630859,5150.975
586.702697754,5195.9
586.983642578,5437.825
587.264648438,5591.25
587.545654297,5537.675
587.826477051,5468.9
588.107421875,5287.875
588.388305664,5334.525
588.669189453,5418.075
588.950012207,5272.2
589.230834961,5151.15
589.511657715,5259.775
589.792358398,5349.85
590.073120117,5362.55
590.353881836,5325.675
590.63458252,5356.475
590.915283203,5302.45
591.195922852,5288.05
591.4765625,5335.5
591.757202148,5379.225
592.037780762,5371.025
592.31829834,5381.625
592.598937988,5602.275
592.879394531,5768.25
593.159912109,5682.0
593.440429688,5614.175
593.720825195,5589.775
594.001281738,5563.275
594.281677246,5463.575
594.562072754,5483.85
594.842407227,5588.925
595.122802734,5598.975
595.403137207,5599.225
595.683410645,5586.4
595.963623047,5562.95
596.243896484,5543.55
596.524169922,5512.6
596.804382324,5528.825
597.084533691,5563.95
597.364746094,5601.675
597.644836426,5635.975
597.924987793,5621.175
598.205078125,5581.575
598.485107422,5592.475
598.765197754,5730.0
599.045227051,5788.775
599.325195312,5662.925
599.605224609,5627.85
599.885192871,5681.025
600.165100098,5721.125
600.445007324,5676.35
600.724914551,5685.775
601.004760742,5685.7
601.284667969,5738.95
601.56451416,5667.375
601.844238281,5668.575
602.124084473,5680.225
602.403808594,5687.825
602.683532715,5728.4
602.963256836,5708.425
603.242919922,5737.15
603.522583008,5777.475
603.802246094,5760.95
604.081848145,5708.575
604.36138916,5678.05
604.641052246,5731.15
604.920532227,5697.375
605.200073242,5746.65
605.479614258,5771.85
605.759094238,5794.5
606.038574219,5793.8
606.317932129,5709.35
606.597412109,5712.4
606.87677002,5747.25
607.15612793,5796.825
607.435546875,5762.55
607.714782715,5790.55
607.99407959,5725.875
608.273376465,5718.075
608.552612305,5758.95
608.831848145,5776.625
609.111083984,5747.05
609.390258789,5747.425
609.669433594,5747.475
609.948608398,5801.025
610.227722168,5755.475
610.506713867,5711.675
610.785888672,5734.3
611.064880371,5713.7
611.34387207,5762.35
611.622924805,5760.8
611.901916504,5742.425
612.180847168,5688.35
612.459777832,5680.2
612.738647461,5700.5
613.01751709,5686.8
613.296447754,5611.525
613.575317383,5600.95
613.854064941,5535.95
614.132873535,5453.6
614.411621094,5404.225
614.690368652,5370.3
614.969177246,5299.05
615.247802734,5236.225
615.526489258,5194.375
615.805175781,5101.6
616.08380127,4954.825
616.362365723,4893.45
616.640991211,4814.4
616.919555664,4775.925
617.198059082,4896.725
617.4765625,5190.625
617.755126953,5316.45
618.033569336,5353.775
618.311950684,5338.55
618.590454102,5355.3
618.868774414,5307.525
619.147155762,5332.5
619.425598145,5311.925
619.703857422,5316.7
619.982177734,5334.05
620.260498047,5312.825
620.538757324,5309.175
620.816955566,5275.35
621.095214844,5228.7
621.373413086,5258.3
621.651550293,5312.825
621.929748535,5356.1
622.207824707,5334.9
622.485900879,5322.425
622.764038086,5330.5
623.042053223,5368.45
623.320007324,5377.175
623.598083496,5381.875
623.876037598,5381.725
624.153991699,5387.45
624.432006836,5417.725
624.709838867,5424.35
624.987731934,5382.2
625.265563965,5406.3
625.543395996,5420.425
625.821228027,5488.375
626.098999023,5460.15
626.376831055,5522.85
626.654541016,5533.975
626.932250977,5561.1
627.209960938,5620.425
627.487670898,5639.825
627.765319824,5670.975
628.04296875,5656.1
628.320495605,5672.65
628.598083496,5668.3
628.875671387,5701.15
629.153259277,5748.65
629.430725098,5792.3
629.708251953,5792.525
629.985656738,5833.775
630.263122559,5836.825
630.540588379,5864.3
630.817932129,5939.325
631.095275879,5935.85
631.372680664,6011.725
631.649963379,6007.075
631.927246094,6054.125
632.204589844,6113.2
632.481811523,6171.875
632.759033203,6235.55
633.036254883,6247.6
633.313415527,6357.975
633.590576172,6374.95
633.867736816,6497.325
634.144836426,6566.725
634.421875,6618.325
634.698913574,6671.375
634.976013184,6739.5
635.252990723,6801.7
635.529968262,6843.25
635.807006836,6915.925
636.08392334,6908.325
636.360839844,6809.625
636.637756348,6694.775
636.914611816,6696.9
637.191467285,6651.175
637.468261719,6729.275
637.745056152,6689.3
638.021789551,6733.875
638.298583984,6731.425
638.575317383,6794.05
638.851989746,6782.425
639.12878418,6792.05
639.405395508,6769.6
639.682006836,6820.1
639.958618164,6819.625
640.235229492,6802.2
640.511779785,6858.775
640.788330078,6843.05
641.064880371,6845.575
641.341308594,6818.925
641.617797852,6825.325
641.894226074,6822.575
642.170654297,6841.675
642.44708252,6858.475
642.723388672,6824.1
642.999755859,6833.475
643.276123047,6864.4
643.552429199,6812.9
643.828674316,6821.0
644.104919434,6817.55
644.381164551,6808.65
644.657348633,6817.45
644.933532715,6776.95
645.209716797,6800.625
645.485839844,6813.9
645.761901855,6798.575
646.038024902,6774.125
646.314086914,6806.05
646.590087891,6798.575
646.866149902,6828.975
647.142150879,6771.775
647.41809082,6758.2
647.694030762,6767.375
647.969970703,6768.65
648.245788574,6787.75
648.521728516,6771.1
648.797546387,6772.425
649.073303223,6790.55
649.349182129,6751.625
649.624938965,6726.9
649.900634766,6779.875
650.176391602,6758.25
650.452087402,6753.35
650.727783203,6745.45
651.003479004,6753.9
651.279052734,6753.125
651.554626465,6731.55
651.83026123,6742.525
652.105773926,6759.6
652.381286621,6690.4
652.656860352,6742.85
652.932312012,6743.25
653.207763672,6741.475
653.483215332,6804.875
653.758605957,6774.1
654.033935547,6780.625
654.309326172,6786.65
654.584716797,6808.325
654.859985352,6788.725
655.135253906,6802.7
655.410583496,6842.275
655.685791016,7868.475
655.9609375,12259.475
656.236206055,11967.625
656.511291504,7969.4
656.786437988,6998.325
657.061645508,6887.0
657.336669922,6874.375
657.611694336,6925.9
657.886779785,6942.675
658.161804199,6969.225
658.436828613,6904.4
658.711791992,6920.875
658.986755371,6944.3
659.261657715,6939.775
659.536621094,6962.025
659.811401367,6964.6
660.086303711,6986.3
660.36114502,6988.525
660.635864258,6995.825
660.910644531,7014.95
661.185424805,7015.2
661.460205078,7067.75
661.734863281,7063.9
662.009521484,7060.725
662.284179688,7079.15
662.558776855,7122.325
662.833435059,7167.15
663.108032227,7155.025
663.382568359,7126.275
663.657043457,7194.075
663.93157959,7225.325
664.206054688,7172.7
664.48046875,7237.55
664.755004883,7280.65
665.02935791,7271.375
665.303710938,7296.275
665.578125,7304.15
665.852416992,7332.05
666.126708984,7336.575
666.401062012,7355.7
666.675292969,7410.175
666.949462891,7396.3
667.223754883,7394.475
667.497924805,7404.875
667.772094727,7441.7
668.046264648,7388.175
668.3203125,7472.25
668.594421387,7518.025
668.868469238,7528.125
669.14251709,7511.075
669.416503906,7540.65
669.690551758,7557.425
669.964477539,7568.4
670.23840332,7593.075
670.512329102,7582.325
670.786254883,7554.225
671.060058594,7642.075
671.333984375,7653.825
671.607788086,7657.7
671.881530762,7692.675
672.155334473,7722.75
672.429077148,7732.75
672.702758789,7747.225
672.97644043,7735.375
673.25012207,7749.275
673.523742676,7724.2
673.797302246,7751.6
674.070922852,7815.25
674.344482422,7815.025
674.618041992,7804.125
674.891601562,7823.95
675.165100098,7848.325
675.438476562,7822.775
675.711975098,7884.45
675.985412598,7844.175
676.258789062,7866.825
676.532165527,7889.7
676.805480957,7891.625
677.078796387,7900.4
677.352111816,7933.45
677.625366211,7927.025
677.898620605,7924.35
678.171875,7975.425
678.445007324,7948.25
678.718200684,7991.0
678.991394043,8008.225
679.264404297,8005.875
679.537536621,8040.875
679.81060791,8053.575
680.083679199,8065.925
680.356689453,8057.175
680.629699707,8093.425
680.902648926,8048.7
681.175598145,8104.75
681.448547363,8149.05
681.721435547,8105.1
681.99420166,8112.25
682.267150879,8093.95
682.539916992,8190.8
682.812744141,8178.95
683.085510254,8139.275
683.358215332,8185.5
683.63092041,8144.9
683.903625488,8173.0
684.176330566,8165.875
684.448913574,8165.375
684.721557617,8142.5
684.99420166,8241.4
685.266662598,8198.225
685.539245605,8223.225
685.811767578,8261.75
686.084289551,8268.4
686.356689453,8303.6
686.629150391,8346.0
686.901550293,8329.525
687.17401123,8350.775
687.446350098,8400.875
687.718688965,8409.95
687.990966797,8443.45
688.263305664,8444.5
688.535522461,8450.7
688.807739258,8486.85
689.079956055,8508.525
689.352172852,8546.2
689.624328613,8528.9
689.896484375,8563.725
690.168518066,8513.475
690.440612793,8562.625
690.71270752,8591.25
690.984741211,8594.525
691.256713867,8610.2
691.528747559,8618.925
691.800720215,8615.85
692.072631836,8642.025
692.344543457,8704.225
692.616394043,8688.5
692.888244629,8711.375
693.160095215,8747.325
693.431945801,8795.525
693.703674316,8719.825
693.975463867,8698.475
694.247131348,8788.875
694.518859863,8782.75
694.790588379,8828.45
695.062255859,8818.875
695.33380127,8797.8
695.60546875,8784.75
695.87701416,8835.25
696.148498535,8855.525
696.42010498,8892.875
696.691589355,8939.275
696.96307373,8912.65
697.234558105,8967.025
697.50592041,8979.125
697.777282715,8998.825
698.048706055,8988.975
698.320068359,9048.3
698.591308594,9046.8
698.862670898,9016.05
699.133972168,9059.15
699.405151367,9007.925
699.676391602,9095.15
699.947570801,9074.75
700.21875,9090.95
700.489868164,9110.675
700.761047363,9106.575
701.032104492,9172.65
701.303100586,9121.7
701.57421875,9178.15
701.845214844,9174.625
702.116149902,9212.325
702.387207031,9201.275
702.65814209,9229.725
702.928955078,9248.875
703.199951172,9214.75
703.47076416,9213.9
703.741577148,9211.325
704.012451172,9249.55
704.28314209,9261.125
704.553955078,9247.925
704.824707031,9309.225
705.095397949,9350.55
705.366027832,9326.425
705.63671875,9364.9
705.907348633,9303.35
706.17791748,9331.975
706.448486328,9370.975
706.719055176,9422.525
706.989562988,9388.05
707.260131836,9417.125
707.530517578,9415.525
707.800964355,9422.775
708.071411133,9391.475
708.341796875,9419.125
708.612182617,9405.0
708.882446289,9380.35
709.152893066,9425.225
709.423156738,9436.825
709.693359375,9414.15
709.963623047,9438.85
710.233825684,9434.575
710.503967285,9406.7
710.774169922,9452.075
711.044311523,9460.675
711.31439209,9441.75
711.584533691,9487.275
711.854553223,9469.65
712.124572754,9503.7
712.39465332,9451.625
712.664611816,9515.725
712.934509277,9548.225
713.204467773,9524.05
713.474365234,9550.95
713.74420166,9519.575
714.014099121,9523.4
714.283874512,9536.5
714.553710938,9557.875
714.823486328,9561.975
715.093200684,9531.05
715.362915039,9566.875
715.632629395,9567.0
715.902282715,9531.425
716.171875,9514.2
716.441589355,9538.55
716.711181641,9513.575
716.980712891,9550.35
717.250244141,9530.95
717.519775391,9537.35
717.78918457,9559.275
718.058654785,9612.85
718.328125,9647.65
718.597473145,9565.975
718.866882324,9576.025
719.136230469,9558.325
719.405578613,9608.475
719.674865723,9638.65
719.944152832,9582.2
720.213439941,9571.25
720.48260498,9615.85
720.75177002,9641.625
721.020996094,9626.9
721.290100098,9649.25
721.559204102,9641.525
721.828308105,9645.125
722.097351074,9657.975
722.366455078,9639.15
722.635437012,9603.6
722.904418945,9588.85
723.173400879,9643.3
723.442321777,9639.025
723.711181641,9599.975
723.980102539,9671.3
724.248962402,9657.65
724.51776123,9624.5
724.786560059,9672.025
725.055358887,9679.525
725.324035645,9677.35
725.592834473,9641.525
725.86151123,9625.225
726.130187988,9639.125
726.398803711,9596.7
726.667419434,9622.225
726.935974121,9629.45
727.204528809,9561.3
727.473083496,9568.15
727.741638184,9537.825
728.010070801,9501.725
728.278564453,9521.425
728.546936035,9519.625
728.815368652,9437.425
729.08380127,9350.3
729.352111816,9333.875
729.620361328,9284.725
729.88873291,9332.15
730.156982422,9382.975
730.425231934,9341.125
730.693481445,9372.425
730.961669922,9431.525
731.229797363,9483.25
731.49798584,9502.3
731.766113281,9546.95
732.034118652,9616.725
732.302246094,9679.675
732.570251465,9693.75
732.838256836,9749.175
733.106262207,9840.1
733.374145508,9847.625
733.642089844,9944.225
733.909973145,9933.025
734.177856445,10066.025
734.445678711,10177.1
734.713562012,10224.65
734.981323242,10250.625
735.249084473,10329.75
735.516845703,10456.1
735.784545898,10563.6
736.052185059,10588.8
736.319885254,10696.95
736.587524414,10741.675
736.855102539,10772.9
737.122619629,10946.525
737.390197754,10934.775
737.657714844,11047.725
737.925170898,11142.025
738.192749023,11263.275
738.460144043,11292.7
738.727539062,11389.8
738.994995117,11515.625
739.262329102,11613.575
739.529663086,11728.6
739.79699707,11745.575
740.06427002,11791.9
740.331481934,11859.125
740.598754883,11918.275
740.865905762,11937.7
741.133056641,12124.85
741.40032959,12135.1
741.667358398,12231.975
741.934448242,12269.85
742.201599121,12293.95
742.468566895,12434.775
742.735534668,12473.55
743.002563477,12500.775
743.26953125,12478.45
743.536437988,12542.275
743.803405762,12680.65
744.0703125,12603.4
744.337097168,12729.475
744.604003906,12610.025
744.870727539,12710.75
745.137512207,12770.375
745.40423584,12785.75
745.670959473,12759.25
745.93762207,12783.075
746.204284668,12808.275
746.470947266,12837.05
746.737548828,12834.4
747.004089355,12819.625
747.270751953,12865.725
747.53717041,12868.675
747.803710938,12792.3
748.070251465,12790.7
748.336608887,12758.65
748.603027344,12734.05
748.869445801,12750.225
749.135803223,12793.425
749.402099609,12793.825
749.668457031,12802.825
749.934753418,12735.55
750.20098877,12685.25
750.467224121,12757.425
750.733459473,12720.3
750.999572754,12681.8
751.26574707,12589.175
751.531860352,12675.4
751.797912598,12610.8
752.064025879,12569.575
752.330078125,12550.4
752.596069336,12528.125
752.862060547,12482.15
753.127990723,12501.325
753.393920898,12472.275
753.659912109,12427.625
753.925720215,12480.325
754.19152832,12411.225
754.457397461,12358.05
754.723144531,12297.275
754.988952637,12269.375
755.254699707,12278.175
755.520385742,12309.3
755.786071777,12297.975
756.051696777,12294.625
756.317382812,12204.45
756.582946777,12201.45
756.848510742,12203.85
757.114074707,12131.5
757.379577637,12109.3
757.645080566,12169.3
757.910583496,12122.2
758.175964355,12056.85
758.441345215,12036.275
758.706848145,11875.325
758.972106934,11873.125
759.237426758,11958.6
759.502807617,11957.275
759.768005371,11930.8
760.03326416,11857.3
760.298522949,11801.325
760.563659668,11798.3
760.828857422,11790.25
761.093994141,11787.325
761.359130859,11738.875
761.624206543,11689.3
761.889282227,11647.2
762.15423584,11631.9
762.419250488,11647.025
762.684265137,11594.425
762.949157715,11564.9
763.214050293,11543.2
763.479003906,11555.5
763.743835449,11508.25
764.008666992,11469.9
764.2734375,11441.175
764.538208008,11497.725
764.802978516,11534.375
765.067687988,11493.225
765.332397461,11457.3
765.597045898,11426.125
765.861694336,11402.05
766.126342773,11374.8
766.390930176,11356.85
766.655395508,11282.9
766.920043945,11254.65
767.184509277,11239.675
767.448974609,11250.0
767.713439941,11243.375
767.977783203,11166.725
768.2421875,11234.325
768.506591797,11160.075
768.770874023,11226.75
769.03515625,11217.675
769.299499512,11177.025
769.563720703,11173.8
769.827941895,11114.4
770.092163086,11103.125
770.356323242,11078.025
770.620483398,11120.675
770.88458252,11118.3
771.148681641,11117.725
771.412719727,11105.85
771.676757812,11092.375
771.940734863,11033.5
772.204711914,11019.775
772.468688965,10969.0
772.73260498,10987.5
772.996459961,10971.675
773.260314941,9779.75
773.524169922,1236.075
773.787963867,154.45
774.051696777,123.325
774.315551758,120.7
774.579223633,120.325
774.842895508,120.3
775.106567383,120.45
775.370239258,116.7
775.633789062,120.775
775.897399902,124.75
776.160949707,114.175
776.424499512,118.975
776.687988281,121.575
776.951477051,125.5
777.214904785,118.975
777.47833252,121.025
