191.299911499,101.375
191.603515625,104.875
191.907119751,95.1
192.210693359,102.375
192.514251709,98.0
192.817810059,101.7
193.121368408,100.025
193.42489624,103.925
193.728408813,97.4
194.031936646,97.0
194.33543396,91.575
194.638916016,109.8
194.94241333,98.25
195.245880127,96.925
195.549331665,96.325
195.852767944,99.55
196.156204224,187.55
196.459625244,181.45
196.763015747,186.45
197.066436768,189.1
197.369812012,184.225
197.673187256,187.125
197.9765625,178.5
198.279922485,185.125
198.583251953,177.25
198.886581421,186.25
199.18989563,191.175
199.493209839,186.55
199.79649353,180.8
200.09979248,190.875
200.403076172,184.05
200.706314087,187.075
201.009567261,186.25
201.312820435,187.6
201.616027832,181.85
201.919235229,172.15
202.222457886,179.475
202.525634766,181.75
202.828826904,174.775
203.132003784,179.725
203.435150146,179.35
203.738296509,178.85
204.041412354,173.825
204.344558716,178.225
204.647659302,180.35
204.950759888,181.1
205.253845215,182.925
205.556930542,176.9
205.859985352,174.35
206.163024902,179.7
206.466079712,182.1
206.769104004,189.3
207.072113037,181.85
207.375137329,186.025
207.678131104,178.975
207.981109619,184.1
208.284088135,181.075
208.587036133,186.2
208.889984131,185.125
209.19291687,186.65
209.495849609,189.025
209.798751831,185.05
210.101654053,186.5
210.404556274,187.775
210.707427979,189.3
211.010269165,192.125
211.31312561,196.2
211.615982056,199.225
211.918807983,192.0
212.221618652,192.45
212.524429321,185.4
212.827224731,196.575
213.130004883,194.8
213.432769775,197.9
213.735534668,195.5
214.038269043,202.375
214.341003418,201.775
214.643737793,203.85
214.946456909,205.0
215.249145508,209.425
215.551834106,210.475
215.854507446,207.975
216.157165527,212.375
216.45980835,207.575
216.762451172,220.2
217.065078735,217.85
217.36769104,216.25
217.670303345,221.775
217.972885132,223.025
218.275466919,229.375
218.578048706,221.925
218.880599976,241.55
219.183120728,243.225
219.485656738,250.575
219.788192749,264.1
220.090682983,290.8
220.393188477,324.225
220.695663452,363.175
220.998138428,407.375
221.300582886,467.45
221.603042603,530.925
221.905487061,593.95
222.207901001,684.325
222.510299683,780.825
222.812728882,874.85
223.115097046,988.65
223.41746521,1120.725
223.719848633,1240.325
224.022171021,1348.175
224.324508667,1486.325
224.626846313,1632.225
224.929168701,1758.725
225.231460571,1911.85
225.533737183,2044.575
225.836013794,2205.85
226.138290405,2316.15
226.440536499,2446.5
226.742767334,2576.425
227.044998169,2689.65
227.347213745,2839.975
227.649429321,2948.325
227.951629639,3049.175
228.253799438,3144.25
228.555953979,3242.225
228.858123779,3339.675
229.160263062,3412.6
229.462371826,3479.2
229.764511108,3554.625
230.066619873,3610.8
230.36869812,3693.625
230.670776367,3747.275
230.972854614,3834.9
231.274902344,3935.5
231.576950073,3992.55
231.878967285,4035.475
232.180999756,4128.35
232.48298645,4222.975
232.784988403,4278.75
233.086975098,4346.475
233.388946533,4397.975
233.69090271,4463.8
233.992858887,4523.725
234.294769287,4541.85
234.596694946,4583.325
234.898605347,4637.625
235.200500488,4627.5
235.502380371,4645.5
235.804244995,4655.05
236.106109619,4635.175
236.407958984,4629.4
236.709777832,4635.85
237.011581421,4636.325
237.313400269,4600.9
237.615203857,4540.5
237.916976929,4552.175
238.21875,4500.775
238.520507812,4478.725
238.822250366,4453.65
239.12399292,4384.425
239.425704956,4352.525
239.727401733,4259.775
240.02911377,4228.5
240.330780029,4151.55
240.632446289,4092.75
240.93409729,4031.775
241.23576355,3971.875
241.537384033,3943.0
241.839004517,3872.8
242.140594482,3814.775
242.442199707,3752.425
242.743774414,3689.375
243.045333862,3608.3
243.346923828,3534.7
243.648452759,3487.35
243.949966431,3398.85
244.251495361,3316.25
244.552993774,3251.85
244.854492188,3146.175
245.155975342,3075.825
245.457443237,2998.275
245.758880615,2928.35
246.060333252,2836.25
246.36177063,2747.725
246.66317749,2664.075
246.964569092,2578.625
247.265945435,2503.175
247.567337036,2422.175
247.86869812,2375.875
248.170059204,2304.1
248.471389771,2233.025
248.772705078,2176.85
249.074035645,2133.625
249.375335693,2075.725
249.676620483,2048.725
249.977890015,1998.475
250.279159546,1962.275
250.58039856,1923.0
250.881637573,1894.45
251.182876587,1857.85
251.484069824,1841.675
251.785263062,1805.475
252.086456299,1791.475
252.387619019,1762.975
252.688781738,1734.725
252.989929199,1728.1
253.291061401,1716.425
253.592178345,1700.375
253.893280029,1681.3
254.194366455,1671.95
254.49546814,1643.35
254.796524048,1625.725
255.097579956,1605.05
255.398620605,1598.475
255.699645996,1591.175
256.000640869,1566.9
256.30166626,1570.075
256.602661133,1568.4
256.903656006,1552.4
257.204589844,1548.475
257.505523682,1523.925
257.80645752,1531.475
258.107391357,1511.725
258.408294678,1522.975
258.709228516,1504.125
259.010070801,1490.0
259.310943604,1499.0
259.611846924,1490.825
259.912658691,1485.5
260.213500977,1486.2
260.514343262,1490.4
260.815124512,1470.125
261.115936279,1492.025
261.416717529,1499.625
261.717468262,1507.55
262.018218994,1500.875
262.318969727,1528.25
262.619689941,1547.7
262.920410156,1575.15
263.221130371,1602.925
263.521789551,1641.75
263.822479248,1687.65
264.123138428,1725.625
264.42376709,1748.875
264.72442627,1793.55
265.025054932,1817.75
265.325622559,1861.95
265.626251221,1902.675
265.926818848,1928.875
266.227386475,1940.75
266.527954102,1976.55
266.828460693,2022.75
267.12902832,2023.375
267.429534912,2069.475
267.730010986,2099.575
268.030517578,2117.575
268.330993652,2173.125
268.631439209,2210.65
268.931915283,2249.575
269.232299805,2285.5
269.532745361,2322.825
269.8331604,2354.925
270.133544922,2393.85
270.433929443,2452.7
270.734313965,2493.5
271.034637451,2566.575
271.334991455,2617.0
271.635314941,2702.825
271.935638428,2744.275
272.235931396,2836.975
272.536254883,2923.075
272.836486816,3017.05
273.136749268,3092.975
273.437011719,3219.125
273.737213135,3335.075
274.037445068,3435.925
274.337677002,3578.875
274.6378479,3695.7
274.938049316,3843.2
275.238220215,3957.925
275.538360596,4117.15
275.838500977,4238.425
276.138641357,4407.125
276.438751221,4504.4
276.738830566,4654.85
277.03894043,4757.025
277.338989258,4928.725
277.639038086,5043.275
277.939056396,5174.55
278.239105225,5300.675
278.539093018,5434.4
278.839141846,5566.725
279.139129639,5679.55
279.439086914,5811.725
279.739044189,5941.0
280.039001465,6049.9
280.338928223,6152.575
280.63885498,6276.8
280.938781738,6389.7
281.238647461,6457.825
281.538513184,6536.325
281.838409424,6635.6
282.138244629,6731.3
282.438079834,6797.425
282.737945557,6885.6
283.037719727,6973.15
283.337524414,7036.875
283.637298584,7094.25
283.937072754,7164.875
284.236816406,7233.725
284.536560059,7260.475
284.836303711,7307.95
285.136016846,7401.075
285.43572998,7489.675
285.735412598,7492.925
286.035064697,7537.575
286.334747314,7595.925
286.634368896,7654.45
286.933990479,7636.35
287.233642578,7625.15
287.533203125,7629.6
287.832824707,7600.45
288.132385254,7528.425
288.431945801,7432.5
288.731506348,7336.825
289.031036377,7181.05
289.330566406,7110.2
289.630065918,7094.8
289.92956543,7102.35
290.229034424,7205.65
290.528503418,7387.075
290.827941895,7585.15
291.127380371,7683.975
291.42678833,7858.025
291.726226807,8011.05
292.025604248,8032.35
292.324981689,8101.275
292.624359131,8125.7
292.923736572,8154.3
293.223052979,8168.775
293.522369385,8178.475
293.821685791,8131.725
294.12097168,8129.4
294.420257568,8081.2
294.719543457,8079.125
295.018768311,8072.45
295.318023682,8010.475
295.617248535,7981.375
295.916442871,7923.45
296.215667725,7858.775
296.514862061,7763.15
296.813995361,7510.15
297.11315918,7330.575
297.412322998,7174.85
297.711425781,7152.825
298.010559082,7306.8
298.309631348,7528.15
298.608734131,7750.175
298.907806396,7921.05
299.206848145,8095.95
299.505889893,8162.95
299.804901123,8272.3
300.103912354,8343.875
300.402954102,8460.175
300.701904297,8493.425
301.00088501,8554.975
301.299835205,8643.85
301.5987854,8666.45
301.897735596,8767.225
302.196624756,8822.5
302.495513916,8900.15
302.794403076,8925.95
303.093292236,9005.325
303.392120361,9053.75
303.690979004,9103.3
303.989837646,9166.0
304.288604736,9192.975
304.587402344,9232.675
304.886199951,9296.8
305.184967041,9304.0
305.483734131,9353.05
305.782501221,9377.35
306.081176758,9387.825
306.37991333,9449.95
306.678619385,9463.625
306.977294922,9480.925
307.275970459,9492.175
307.574645996,9503.45
307.873260498,9477.725
308.171875,9506.075
308.470489502,9476.6
308.769104004,9424.65
309.067687988,9428.75
309.366241455,9429.275
309.664794922,9369.925
309.963348389,9383.85
310.261871338,9373.15
310.560394287,9408.175
310.858856201,9438.075
311.157348633,9440.375
311.455810547,9441.3
311.754272461,9467.575
312.052703857,9557.725
312.351135254,9572.95
312.649536133,9572.425
312.947937012,9556.1
313.246307373,9587.425
313.544647217,9604.75
313.843017578,9506.475
314.141387939,9502.575
314.439697266,9506.75
314.738006592,9465.95
315.036315918,9379.6
315.334564209,9299.475
315.6328125,9244.375
315.931091309,9175.075
316.229309082,9062.575
316.527526855,8896.0
316.825744629,8889.875
317.123901367,8769.4
317.422088623,8723.425
317.720245361,8721.375
318.0184021,8734.825
318.316497803,8796.7
318.614654541,8829.85
318.912750244,8910.3
319.21081543,8899.2
319.50894165,8930.025
319.806945801,8926.125
320.104980469,8922.775
320.403045654,8921.325
320.701049805,8895.35
320.999023438,8888.65
321.297027588,8835.075
321.595001221,8806.175
321.892913818,8751.325
322.190887451,8690.575
322.488830566,8631.875
322.786712646,8584.6
323.084625244,8510.775
323.382507324,8495.15
323.680358887,8385.775
323.978210449,8312.625
324.276062012,8283.8
324.573852539,8185.525
324.871643066,8151.325
325.169464111,8074.075
325.467224121,8020.525
325.764984131,7943.9
326.062744141,7867.825
326.360473633,7784.075
326.658203125,7731.975
326.955871582,7643.55
327.253570557,7607.025
327.551239014,7547.075
327.848907471,7429.4
328.146514893,7383.075
328.444152832,7324.775
328.741790771,7249.55
329.039367676,7222.2
329.336914062,7145.175
329.634521484,7069.35
329.932067871,7013.425
330.229553223,6927.925
330.527160645,6871.9
330.824615479,6839.55
331.12210083,6748.05
331.419586182,6641.95
331.717041016,6587.125
332.014465332,6507.15
332.311920166,6456.325
332.609313965,6394.7
332.906707764,6407.3
333.204101562,6379.375
333.501495361,6380.425
333.798828125,6448.05
334.096160889,6467.65
334.39352417,6536.95
334.690795898,6577.45
334.988098145,6634.9
335.285400391,6688.9
335.582641602,6709.375
335.879882812,6729.45
336.177124023,6755.0
336.474334717,6825.125
336.77154541,6800.2
337.068725586,6828.1
337.365905762,6845.825
337.66305542,6853.625
337.960205078,6865.25
338.257324219,6919.525
338.554443359,6913.15
338.8515625,6924.725
339.148590088,6896.825
339.445648193,6930.7
339.742736816,6901.05
340.039764404,6888.275
340.336761475,6851.6
340.63381958,6788.375
340.930755615,6750.775
341.227722168,6670.85
341.524688721,6602.05
341.821624756,6541.05
342.118560791,6554.825
342.415496826,6651.95
342.712402344,6778.05
343.009246826,6951.05
343.306121826,7044.15
343.602966309,7113.65
343.899810791,7194.35
344.196624756,7307.175
344.493438721,7322.0
344.79019165,7356.8
345.086975098,7404.325
345.383758545,7478.725
345.680480957,7440.8
345.977203369,7457.2
346.273956299,7480.575
346.570617676,7495.25
346.86730957,7505.45
347.163970947,7472.675
347.460601807,7520.9
347.757232666,7498.0
348.053894043,7511.525
348.350463867,7417.175
348.647064209,7401.525
348.943634033,7388.65
349.24017334,7394.65
349.536712646,7338.675
349.833251953,7343.8
350.129760742,7293.8
350.426208496,7300.65
350.722747803,7259.525
351.019195557,7234.55
351.315612793,7167.75
351.612060547,7151.85
351.908508301,7093.425
352.204864502,7040.9
352.501281738,6996.925
352.797637939,6895.95
353.093963623,6815.6
353.390319824,6755.75
353.686645508,6657.0
353.982940674,6576.85
354.27923584,6548.9
354.575531006,6454.55
354.871765137,6468.225
355.167999268,6435.375
355.464233398,6436.175
355.760437012,6452.025
356.056640625,6423.25
356.352813721,6423.05
356.648956299,6388.95
356.945129395,6437.225
357.241271973,6408.575
357.537384033,6442.7
357.833496094,6370.45
358.129577637,6366.675
358.425628662,6309.175
358.721679688,6293.55
359.017730713,6260.975
359.313720703,6182.975
359.609710693,6142.35
359.905761719,6092.625
360.201721191,6051.2
360.497650146,5995.65
360.793609619,5947.55
361.089538574,5877.85
361.385437012,5793.975
361.681365967,5740.475
361.977233887,5677.675
362.273071289,5614.6
362.568908691,5490.275
362.864746094,5359.275
363.160552979,5232.425
363.456359863,5033.125
363.752166748,4896.775
364.047912598,4828.5
364.343658447,4779.075
364.639434814,4800.65
364.935119629,4809.325
365.230834961,4873.6
365.526550293,4906.25
365.822174072,4915.5
366.117858887,4901.6
366.413482666,4944.5
366.709075928,4980.675
367.004730225,4873.85
367.300292969,4846.675
367.595855713,4906.1
367.891448975,4778.425
368.186981201,4677.525
368.482513428,4634.575
368.778015137,4603.975
369.073547363,4559.7
369.36895752,4560.3
369.664428711,4467.275
369.95993042,4341.2
370.255310059,4282.0
370.550720215,4243.225
370.846160889,4223.8
371.14151001,4171.025
371.436859131,4126.125
371.73223877,4121.775
372.027557373,4074.05
372.322875977,4006.875
372.618164062,3973.75
372.913482666,3929.85
373.208709717,3916.125
373.503967285,3836.95
373.799194336,3782.925
374.094421387,3794.475
374.389648438,3754.725
374.684844971,3755.6
374.979980469,3782.875
375.275146484,3776.4
375.570281982,3799.825
375.865386963,3789.725
376.160522461,3738.65
376.455596924,3737.4
376.750640869,3834.55
377.045715332,3832.25
377.340759277,3841.35
377.635772705,3916.625
377.93081665,3943.95
378.225769043,3984.125
378.520751953,4051.375
378.815734863,3979.4
379.110656738,4138.875
379.405548096,4289.1
379.700500488,4133.1
379.995391846,3940.55
380.290252686,3988.025
380.585083008,4070.4
380.879974365,4107.775
381.17477417,4010.975
381.469543457,3947.75
381.764404297,3950.725
382.059143066,3968.875
382.353912354,4045.85
382.648651123,4113.25
382.943389893,4085.825
383.238067627,3915.275
383.532775879,3926.35
383.827484131,3868.35
384.12210083,3861.125
384.416778564,3818.65
384.711425781,3729.825
385.006011963,3753.8
385.300628662,3739.65
385.595184326,3808.4
385.88973999,3878.275
386.184295654,3973.05
386.478820801,4040.075
386.77331543,4118.075
387.067840576,4220.5
387.362335205,4303.625
387.656768799,4358.75
387.951202393,4380.4
388.245635986,4450.65
388.540039062,4490.3
388.834472656,4561.55
389.128875732,4475.625
389.423187256,4251.45
389.717559814,4209.875
390.011871338,4299.95
390.306182861,4325.325
390.600463867,4346.1
390.894775391,4410.15
391.189025879,4422.375
391.48324585,4420.425
391.777526855,4458.8
392.071685791,4643.375
392.365875244,4744.675
392.660064697,4783.25
392.95425415,5102.025
393.248382568,5067.65
393.542510986,4651.8
393.836608887,4486.7
394.130706787,4493.025
394.424804688,4434.65
394.71887207,4553.625
395.012878418,4512.9
395.306915283,4443.75
395.600921631,4376.125
395.894927979,4336.25
396.188903809,4380.925
396.482879639,4386.925
396.776794434,4575.875
397.070739746,4548.475
397.364654541,4563.0
397.658538818,4904.15
397.952423096,4938.525
398.246307373,4911.2
398.540100098,5379.35
398.833953857,5260.65
399.127746582,4824.6
399.421508789,4837.1
399.715301514,4783.725
400.009063721,4705.35
400.30279541,4593.475
400.596496582,4505.075
400.890258789,4660.85
401.183929443,4724.125
401.47756958,4622.825
401.771240234,4424.2
402.064880371,4441.9
402.35848999,4478.6
402.652130127,4405.675
402.945678711,4455.75
403.239257812,4408.325
403.532775879,4377.1
403.82635498,4409.275
404.119842529,4349.375
404.413360596,4318.25
404.706848145,4369.15
405.000274658,4299.6
405.293762207,4392.275
405.587188721,4443.35
405.880584717,4303.2
406.17401123,4138.775
406.467407227,3946.6
406.760742188,3966.875
407.054107666,4007.65
407.347442627,3944.45
407.640716553,3937.45
407.934051514,3977.85
408.227325439,4044.35
408.520568848,4255.675
408.813842773,4342.875
409.107086182,4153.675
409.400238037,4105.0
409.693450928,4060.025
409.986633301,4156.475
410.279754639,4076.525
410.572875977,3815.2
410.86605835,3745.5
411.159118652,3777.875
411.452209473,3781.525
411.745330811,3665.825
412.038360596,3580.2
412.331390381,3628.3
412.624420166,3671.85
412.917388916,3585.9
413.210388184,3432.025
413.503387451,3392.925
413.796295166,3288.9
414.089233398,3143.375
414.382141113,3072.35
414.675048828,3070.4
414.967926025,3095.775
415.260803223,3046.125
415.55368042,3078.575
415.846466064,3050.825
416.139282227,3114.95
416.432098389,3234.95
416.724853516,3221.425
417.017608643,3178.175
417.31036377,3194.725
417.603088379,3313.6
417.895782471,3292.125
418.188476562,3266.025
418.481140137,3324.775
418.773803711,3383.125
419.066436768,3373.925
419.359039307,3445.05
419.651641846,3427.825
419.944244385,3444.825
420.236816406,3416.95
420.529327393,3615.55
420.821899414,3684.125
421.114379883,3620.3
421.406860352,3884.7
421.699371338,4094.325
421.991821289,4063.225
422.284240723,3879.6
422.576721191,3723.325
422.869110107,3622.425
423.161468506,3577.7
423.453857422,3600.525
423.74621582,3492.775
424.038543701,3367.675
424.330871582,3327.3
424.623168945,3286.3
424.915435791,3412.575
425.207702637,3386.15
425.499969482,3328.35
425.792205811,3275.125
426.084411621,3027.15
426.376617432,3109.85
426.668762207,3177.4
426.9609375,3073.025
427.253082275,3187.3
427.545196533,3596.0
427.837310791,3324.3
428.129425049,3052.55
428.421447754,3263.475
428.713531494,3259.35
429.005554199,3255.05
429.297576904,3282.15
429.589599609,3684.1
429.881561279,4002.0
430.173522949,3781.0
430.465484619,3746.875
430.757415771,3824.075
431.049316406,3600.275
431.341186523,3379.2
431.633117676,3272.4
431.924957275,2986.65
432.21673584,2879.85
432.508636475,3014.45
432.800415039,3051.8
433.092163086,2935.725
433.383972168,2918.475
433.675689697,3616.45
433.967437744,4089.55
434.259155273,3167.975
434.550872803,2856.1
434.842498779,2925.775
435.134185791,3036.75
435.425842285,3068.25
435.717437744,2967.875
436.009063721,2791.9
436.30065918,2928.95
436.592224121,3284.2
436.883758545,3094.575
437.175323486,2839.675
437.466827393,2817.725
437.758331299,2820.725
438.049804688,2848.275
438.341247559,2914.925
438.63269043,2988.35
438.924163818,2974.25
439.215515137,2943.35
439.50692749,2842.325
439.798309326,2854.175
440.089660645,2846.1
440.380981445,2769.675
440.672332764,2763.95
440.963623047,3045.6
441.254882812,3484.175
441.546173096,3660.075
441.837402344,3418.2
442.128631592,3252.5
442.41986084,3224.45
442.711029053,3091.05
443.002197266,3165.125
443.293365479,3341.325
443.584503174,3480.375
443.875610352,3459.625
444.166717529,3194.55
444.457794189,3252.15
444.748840332,3238.0
445.039916992,3192.025
445.330932617,3282.425
445.621948242,3129.675
445.912963867,2943.225
446.203918457,3157.425
446.494812012,3401.6
446.785827637,3191.0
447.076721191,3021.825
447.367584229,3015.65
447.658447266,2963.8
447.949371338,3040.625
448.24017334,2904.1
448.530975342,2811.425
448.821838379,3000.975
449.112579346,3084.85
449.40335083,2996.975
449.694152832,3043.225
449.984863281,3057.375
450.27557373,2988.7
450.56628418,3042.475
450.856933594,3064.125
451.147583008,2910.075
451.438262939,2780.775
451.728881836,2993.075
452.019470215,3096.675
452.310089111,2898.4
452.600646973,2897.65
452.891174316,2973.175
453.181732178,2802.525
453.472229004,2669.2
453.762695312,2769.0
454.053222656,2792.65
454.343658447,2684.0
454.634063721,2612.85
454.924530029,2796.275
455.214935303,2933.6
455.505279541,2994.25
455.795715332,2864.6
456.086029053,2664.4
456.376312256,2659.375
456.666687012,2689.225
456.956939697,2784.2
457.247192383,2794.75
457.537445068,2873.675
457.827728271,3054.6
458.117919922,2983.65
458.408081055,2910.5
458.698303223,3081.875
458.988433838,3021.975
459.278564453,2839.95
459.568725586,3115.125
459.858825684,3247.05
460.148864746,2918.475
460.438995361,2887.225
460.729034424,2936.6
461.019042969,2940.55
461.309082031,3145.475
461.599060059,3032.65
461.889007568,2565.85
462.179016113,2382.975
462.468933105,2625.7
462.75881958,2742.725
463.048736572,2481.375
463.338592529,2755.0
463.628448486,3119.725
463.918365479,2816.5
464.2081604,2973.1
464.497924805,2940.1
464.787780762,3072.275
465.077514648,3407.975
465.367218018,2987.575
465.657012939,3198.55
465.946685791,3616.4
466.236358643,3207.175
466.526092529,2670.775
466.815734863,2676.05
467.105316162,2616.6
467.394927979,2643.225
467.684570312,2484.4
467.974121094,2588.95
468.263671875,2686.8
468.553222656,2485.6
468.842773438,2370.55
469.132232666,2259.525
469.42175293,2286.45
469.711212158,2258.6
470.000640869,2136.75
470.290100098,2186.075
470.579498291,2241.95
470.868835449,2239.075
471.158294678,2182.475
471.447601318,2176.525
471.736907959,2242.325
472.026275635,2310.675
472.315551758,2298.125
472.604797363,2297.5
472.894104004,2426.475
473.183319092,2537.2
473.47253418,2520.775
473.761779785,2518.8
474.05090332,2436.35
474.340087891,2403.4
474.629241943,2336.525
474.918365479,2513.7
475.207427979,2794.25
475.496551514,2809.575
475.785614014,2529.95
476.074645996,2351.0
476.363708496,2442.225
476.652679443,2583.075
476.941650391,2398.8
477.230682373,2255.575
477.519622803,2242.15
477.808502197,2395.125
478.097412109,2679.05
478.386352539,2632.55
478.675201416,2352.65
478.964050293,2250.825
479.25289917,2443.2
479.541717529,2493.725
479.830474854,2348.325
480.11932373,2701.125
480.408050537,2879.5
480.696777344,2492.325
480.985534668,2355.225
481.274200439,2449.4
481.562866211,2708.1
481.851593018,2727.15
482.140197754,2665.95
482.428833008,2509.3
482.717468262,2288.5
483.006011963,2322.425
483.294586182,2459.1
483.5831604,2503.4
483.871673584,2355.175
484.16015625,2510.425
484.448699951,2757.525
484.7371521,2804.95
485.02557373,2800.875
485.314025879,2518.625
485.602416992,3938.85
485.890777588,13849.625
486.179199219,12374.6
486.467559814,3320.975
486.755859375,2414.525
487.044219971,2835.5
487.332519531,3012.2
487.620758057,2594.25
487.908966064,2330.875
488.197265625,2115.175
488.485473633,2013.1
488.773651123,2138.85
489.061859131,2126.1
489.350006104,2065.925
489.638122559,2009.35
489.926300049,2038.45
490.214355469,1990.95
490.502441406,1927.875
490.790527344,1865.225
491.078552246,2070.275
491.366546631,2068.3
491.654602051,1832.1
491.942565918,1901.55
492.230499268,1955.6
492.518493652,1916.475
492.806396484,1954.625
493.094268799,1869.75
493.382202148,1895.5
493.670074463,2028.325
493.957885742,1865.575
494.245727539,1853.975
494.533508301,2045.575
494.821289062,1929.45
495.109100342,1754.025
495.396850586,1708.125
495.684539795,1665.075
495.972290039,1889.85
496.25994873,2245.0
496.547607422,2269.525
496.835296631,2073.325
497.122894287,1731.875
497.410522461,1651.375
497.6980896,1656.825
497.985687256,1613.975
498.273223877,1724.525
498.560760498,1801.2
498.848266602,1810.025
499.135772705,1804.225
499.423217773,1838.3
499.710693359,1958.875
499.998138428,1882.05
500.285522461,1706.875
500.572937012,1622.575
500.860290527,1690.55
501.147644043,1785.375
501.434997559,2040.55
501.722290039,1903.8
502.00958252,1646.675
502.296875,1938.525
502.584106445,1927.375
502.871337891,1728.2
503.158599854,1814.275
503.445770264,1898.175
503.732910156,1874.85
504.020141602,1670.7
504.307220459,1654.05
504.594329834,1689.1
504.881469727,1623.175
505.168518066,1698.5
505.455535889,1765.5
505.742614746,1646.25
506.029632568,1571.45
506.316589355,1772.775
506.603637695,1870.875
506.890563965,1662.4
507.177459717,1480.4
507.464385986,1381.1
507.751312256,1639.175
508.038146973,1718.1
508.325012207,1567.4
508.611877441,1637.825
508.898681641,1644.175
509.185424805,1472.625
509.472259521,1431.8
509.759002686,1521.7
510.045715332,1555.55
510.332458496,1482.825
510.619140625,1564.675
510.905761719,1462.7
511.192504883,1459.675
511.479095459,1505.2
511.765686035,1464.15
512.052307129,1370.575
512.338928223,1307.0
512.625427246,1350.075
512.91204834,1437.375
513.198486328,1407.5
513.484985352,1364.125
513.77142334,1292.575
514.057922363,1351.025
514.344299316,1341.25
514.63079834,1299.4
514.917175293,1286.35
515.203552246,1178.575
515.489868164,1149.625
515.776245117,1285.725
516.0625,1327.775
516.348815918,1229.475
516.635070801,1284.725
516.921325684,1324.925
517.207580566,1261.45
517.493774414,1158.55
517.779968262,1178.025
518.066101074,1211.3
518.352294922,1168.7
518.638366699,1170.35
518.924499512,1252.275
519.210632324,1336.0
519.496643066,1286.15
519.782714844,1188.45
520.068786621,1149.15
520.354736328,1105.175
520.640686035,1064.175
520.926757812,1115.925
521.212646484,1192.675
521.498535156,1206.375
521.784484863,1138.625
522.0703125,1073.625
522.356262207,1094.3
522.642089844,1174.8
522.927856445,1162.55
523.213684082,1162.2
523.499511719,1149.075
523.78527832,1188.975
524.070983887,1245.25
524.356750488,1220.4
524.64239502,1180.3
524.928039551,1169.725
525.213806152,1183.725
525.499389648,1179.1
525.784973145,1215.7
526.070617676,1260.725
526.356140137,1217.95
526.641723633,1222.675
526.927307129,1306.325
527.212768555,1301.325
527.498291016,1277.65
527.783752441,1275.45
528.069213867,1257.15
528.354675293,1287.85
528.640014648,1452.225
528.925476074,1527.025
529.21081543,1449.075
529.496154785,1414.95
529.781555176,1388.025
530.066833496,1405.875
530.352050781,1418.35
530.637390137,1407.875
530.922607422,1399.625
531.207824707,1402.225
531.493041992,1395.475
531.778198242,1467.35
532.063354492,1439.275
532.348571777,1385.65
532.633666992,1386.15
532.918762207,1479.575
533.203857422,1576.35
533.488891602,1597.525
533.773925781,1546.175
534.059020996,1508.725
534.343933105,1553.075
534.628967285,1530.75
534.91394043,1540.625
535.198852539,1556.775
535.483703613,1525.825
535.768676758,1467.125
536.053527832,1473.0
536.338317871,1422.9
536.62322998,1348.7
536.90802002,1327.7
537.192810059,1369.3
537.477539062,1437.175
537.762329102,1469.55
538.047058105,1525.725
538.331726074,1549.5
538.616455078,1535.675
538.901123047,1515.1
539.18572998,1566.2
539.470397949,1575.35
539.755004883,1560.125
540.039550781,1515.25
540.32409668,1468.575
540.608703613,1526.2
540.893188477,1606.075
541.17767334,1639.4
541.462158203,1635.5
541.746643066,1579.725
542.031066895,1622.6
542.315429688,1675.625
542.59979248,1655.925
542.884216309,1645.325
543.168579102,1632.95
543.452941895,1644.8
543.737243652,1704.225
544.021484375,1751.95
544.305725098,1747.375
544.590026855,1728.475
544.874267578,1730.425
545.158447266,1799.375
545.442626953,1716.4
545.726806641,1606.775
546.010925293,1650.125
546.29510498,1663.55
546.579162598,1674.375
546.863220215,1701.325
547.147277832,1781.425
547.431335449,1863.175
547.715332031,1928.8
547.999328613,2054.6
548.283325195,2055.9
548.567260742,1909.625
548.851135254,1876.7
549.135070801,1843.275
549.419006348,1730.425
549.702819824,1852.625
549.986755371,1927.15
550.270507812,1873.15
550.554321289,1916.975
550.83807373,1934.9
551.121826172,1892.525
551.405517578,1917.6
551.689331055,2037.975
551.973022461,2284.9
552.256652832,2345.95
552.540344238,2235.45
552.823974609,2219.2
553.107543945,2203.35
553.391174316,2264.625
553.674743652,2334.0
553.958251953,2346.025
554.241821289,2348.425
554.525268555,2282.525
554.808776855,2268.675
555.092285156,2469.3
555.375671387,2574.425
555.659057617,2545.05
555.942504883,2579.625
556.225891113,2630.975
556.509216309,2585.575
556.792541504,2488.45
557.075866699,2569.95
557.359130859,2604.975
557.64239502,2609.575
557.92565918,2682.475
558.208862305,2670.075
558.49206543,2600.75
558.77532959,2613.175
559.058410645,2668.2
559.341552734,2654.85
559.624694824,2711.925
559.907775879,2791.85
560.190856934,2916.325
560.473937988,2904.7
560.756896973,2945.725
561.039978027,2980.45
561.322937012,2937.275
561.605895996,2935.05
561.88885498,2892.625
562.171813965,2891.175
562.454650879,2878.95
562.737548828,2924.975
563.020446777,3003.775
563.303283691,3022.525
563.58605957,3057.6
563.868896484,3078.225
564.151672363,3122.125
564.434387207,3154.85
564.717163086,3137.325
564.99987793,3158.85
565.282531738,3233.475
565.565185547,3169.85
565.847839355,3184.2
566.130432129,3300.5
566.413085938,3285.475
566.695678711,3296.375
566.978149414,3395.975
567.260681152,3552.825
567.543273926,3658.525
567.825744629,3542.525
568.108154297,3578.475
568.390686035,3712.3
568.673095703,3846.05
568.955505371,3897.15
569.237854004,3925.8
569.520202637,4221.575
569.802490234,4449.825
570.084838867,4421.2
570.367126465,4252.95
570.649414062,4254.4
570.93170166,4638.4
571.213928223,4705.225
571.496154785,4421.975
571.778381348,4678.875
572.06048584,4965.45
572.342590332,4475.375
572.624755859,4086.775
572.906860352,4168.625
573.188903809,4895.075
573.470947266,5155.0
573.752990723,4898.15
574.03503418,5008.85
574.317016602,5431.7
574.598937988,5182.125
574.88092041,5071.325
575.162841797,5250.625
575.444763184,4869.9
575.726623535,4606.575
576.008483887,4623.725
576.290344238,5055.2
576.572143555,5272.225
576.853881836,5352.325
577.135681152,5230.2
577.417419434,5305.675
577.699157715,6220.175
577.980895996,6377.425
578.262573242,5689.975
578.544128418,5179.2
578.825866699,5125.6
579.107421875,4792.675
579.388977051,4970.95
579.670593262,5407.325
579.952148438,5224.325
580.233642578,5342.075
580.515197754,5461.2
580.796691895,5141.675
581.078125,5352.525
581.359619141,6928.075
581.640991211,7029.375
581.922363281,6042.6
582.203796387,6117.1
582.485107422,5738.95
582.766418457,5313.85
583.047790527,5137.95
583.329040527,5022.2
583.610290527,4890.75
583.891540527,4995.9
584.172790527,5331.775
584.453918457,5351.0
584.735107422,5404.525
585.016235352,5884.175
585.297363281,5842.85
585.578552246,5640.9
585.859619141,5583.175
586.140625,5314.45
586.421630859,5192.975
586.702697754,5222.025
586.983642578,5477.55
587.264648438,5633.1
587.545654297,5571.275
587.826477051,5533.25
588.107421875,5335.075
588.388305664,5365.575
588.669189453,5475.275
588.950012207,5294.8
589.230834961,5209.45
589.511657715,5282.4
589.792358398,5396.65
590.073120117,5376.95
590.353881836,5374.475
590.63458252,5375.45
590.915283203,5359.025
591.195922852,5324.45
591.4765625,5376.0
591.757202148,5425.275
592.037780762,5405.75
592.31829834,5410.55
592.598937988,5630.725
592.879394531,5810.2
593.159912109,5707.55
593.440429688,5656.475
593.720825195,5630.2
594.001281738,5595.05
594.281677246,5513.175
594.562072754,5530.5
594.842407227,5615.825
595.122802734,5662.975
595.403137207,5645.425
595.683410645,5627.225
595.963623047,5594.8
596.243896484,5559.1
596.524169922,5554.925
596.804382324,5550.55
597.084533691,5601.775
597.364746094,5676.125
597.644836426,5651.65
597.924987793,5638.55
598.205078125,5624.75
598.485107422,5634.65
598.765197754,5750.95
599.045227051,5841.75
599.325195312,5705.15
599.605224609,5673.25
599.885192871,5736.0
600.165100098,5740.6
600.445007324,5688.15
600.724914551,5696.8
601.004760742,5703.875
601.284667969,5745.9
601.56451416,5706.875
601.844238281,5704.9
602.124084473,5718.425
602.403808594,5714.125
602.683532715,5748.05
602.963256836,5723.2
603.242919922,5774.275
603.522583008,5822.45
603.802246094,5785.7
604.081848145,5746.625
604.36138916,5742.025
604.641052246,5763.75
604.920532227,5735.4
605.200073242,5766.0
605.479614258,5795.25
605.759094238,5824.5
606.038574219,5840.85
606.317932129,5741.65
606.597412109,5760.75
606.87677002,5760.45
607.15612793,5804.525
607.435546875,5824.15
607.714782715,5797.325
607.99407959,5777.825
608.273376465,5773.425
608.552612305,5765.15
608.831848145,5823.05
609.111083984,5798.875
609.390258789,5760.1
609.669433594,5759.25
609.948608398,5821.15
610.227722168,5827.95
610.506713867,5772.775
610.785888672,5764.05
611.064880371,5762.925
611.34387207,5787.225
611.622924805,5773.7
611.901916504,5776.85
612.180847168,5709.6
612.459777832,5706.95
612.738647461,5715.3
613.01751709,5689.9
613.296447754,5633.975
613.575317383,5611.1
613.854064941,5532.125
614.132873535,5459.2
614.411621094,5391.525
614.690368652,5380.275
614.969177246,5321.325
615.247802734,5248.45
615.526489258,5210.25
615.805175781,5083.35
616.08380127,5000.575
616.362365723,4878.35
616.640991211,4849.325
616.919555664,4798.55
617.198059082,4893.175
617.4765625,5184.75
617.755126953,5336.3
618.033569336,5360.825
618.311950684,5365.325
618.590454102,5341.6
618.868774414,5336.9
619.147155762,5347.2
619.425598145,5310.575
619.703857422,5329.55
619.982177734,5338.575
620.260498047,5336.075
620.538757324,5316.525
620.816955566,5289.05
621.095214844,5246.025
621.373413086,5267.825
621.651550293,5309.775
621.929748535,5370.825
622.207824707,5316.675
622.485900879,5358.1
622.764038086,5352.825
623.042053223,5369.975
623.320007324,5391.525
623.598083496,5400.375
623.876037598,5388.0
624.153991699,5404.8
624.432006836,5402.425
624.709838867,5436.8
624.987731934,5419.725
625.265563965,5409.525
625.543395996,5447.825
625.821228027,5472.45
626.098999023,5486.475
626.376831055,5531.25
626.654541016,5544.225
626.932250977,5555.225
627.209960938,5625.6
627.487670898,5635.4
627.765319824,5656.675
628.04296875,5660.05
628.320495605,5681.95
628.598083496,5667.425
628.875671387,5703.55
629.153259277,5738.45
629.430725098,5799.075
629.708251953,5798.6
629.985656738,5811.275
630.263122559,5854.075
630.540588379,5883.05
630.817932129,5916.0
631.095275879,5935.825
631.372680664,5978.95
631.649963379,6026.275
631.927246094,6053.375
632.204589844,6094.9
632.481811523,6163.275
632.759033203,6227.325
633.036254883,6257.85
633.313415527,6335.5
633.590576172,6390.325
633.867736816,6497.95
634.144836426,6559.35
634.421875,6626.4
634.698913574,6672.6
634.976013184,6721.85
635.252990723,6805.15
635.529968262,6830.0
635.807006836,6914.45
636.08392334,6886.075
636.360839844,6804.25
636.637756348,6703.05
636.914611816,6674.825
637.191467285,6639.65
637.468261719,6729.9
637.745056152,6707.475
638.021789551,6710.95
638.298583984,6740.05
638.575317383,6765.7
638.851989746,6790.7
639.12878418,6793.8
639.405395508,6763.125
639.682006836,6817.0
639.958618164,6797.5
640.235229492,6789.15
640.511779785,6830.875
640.788330078,6810.6
641.064880371,6802.9
641.341308594,6819.5
641.617797852,6810.75
641.894226074,6809.8
642.170654297,6827.625
642.44708252,6826.7
642.723388672,6824.35
642.999755859,6825.4
643.276123047,6819.9
643.552429199,6805.5
643.828674316,6807.2
644.104919434,6821.1
644.381164551,6773.0
644.657348633,6804.575
644.933532715,6758.05
645.209716797,6741.7
645.485839844,6782.925
645.761901855,6777.8
646.038024902,6757.45
646.314086914,6795.375
646.590087891,6743.225
646.866149902,6814.6
647.142150879,6746.75
647.41809082,6729.125
647.694030762,6720.3
647.969970703,6718.3
648.245788574,6758.525
648.521728516,6741.9
648.797546387,6727.35
649.073303223,6749.125
649.349182129,6720.25
649.624938965,6724.4
649.900634766,6751.75
650.176391602,6717.3
650.452087402,6722.05
650.727783203,6712.525
651.003479004,6728.2
651.279052734,6726.05
651.554626465,6708.1
651.83026123,6703.45
652.105773926,6745.45
652.381286621,6696.1
652.656860352,6691.025
652.932312012,6713.05
653.207763672,6691.075
653.483215332,6743.8
653.758605957,6747.0
654.033935547,6725.4
654.309326172,6731.35
654.584716797,6777.5
654.859985352,6750.15
655.135253906,6787.55
655.410583496,6792.35
655.685791016,7831.25
655.9609375,12166.825
656.236206055,11922.15
656.511291504,7905.35
656.786437988,6948.325
657.061645508,6837.25
657.336669922,6831.55
657.611694336,6871.075
657.886779785,6877.65
658.161804199,6924.7
658.436828613,6889.8
658.711791992,6902.525
658.986755371,6905.8
659.261657715,6906.975
659.536621094,6927.325
659.811401367,6910.75
660.086303711,6952.925
660.36114502,6946.9
660.635864258,6934.55
660.910644531,6994.45
661.185424805,6980.1
661.460205078,7016.55
661.734863281,6998.75
662.009521484,7013.575
662.284179688,7018.55
662.558776855,7084.05
662.833435059,7098.5
663.108032227,7089.05
663.382568359,7071.7
663.657043457,7119.05
663.93157959,7131.55
664.206054688,7140.05
664.48046875,7176.975
664.755004883,7204.825
665.02935791,7226.75
665.303710938,7246.725
665.578125,7260.75
665.852416992,7255.45
666.126708984,7259.15
666.401062012,7289.075
666.675292969,7346.3
666.949462891,7315.575
667.223754883,7311.9
667.497924805,7355.4
667.772094727,7376.8
668.046264648,7347.375
668.3203125,7438.6
668.594421387,7424.4
668.868469238,7447.125
669.14251709,7459.3
669.416503906,7484.1
669.690551758,7484.5
669.964477539,7493.2
670.23840332,7516.2
670.512329102,7502.725
670.786254883,7492.075
671.060058594,7579.65
671.333984375,7566.45
671.607788086,7602.825
671.881530762,7613.4
672.155334473,7638.725
672.429077148,7652.775
672.702758789,7715.5
672.97644043,7656.725
673.25012207,7660.625
673.523742676,7651.35
673.797302246,7661.325
674.070922852,7759.675
674.344482422,7752.7
674.618041992,7765.25
674.891601562,7757.15
675.165100098,7779.05
675.438476562,7773.2
675.711975098,7788.975
675.985412598,7762.4
676.258789062,7772.95
676.532165527,7823.875
676.805480957,7827.825
677.078796387,7863.35
677.352111816,7857.625
677.625366211,7854.55
677.898620605,7839.15
678.171875,7906.925
678.445007324,7878.65
678.718200684,7930.25
678.991394043,7924.8
679.264404297,7909.75
679.537536621,7936.5
679.81060791,7947.9
680.083679199,7967.0
680.356689453,7997.75
680.629699707,8000.225
680.902648926,7957.825
681.175598145,8037.2
681.448547363,8051.1
681.721435547,8018.575
681.99420166,8012.65
682.267150879,8017.3
682.539916992,8081.9
682.812744141,8069.925
683.085510254,8030.95
683.358215332,8075.5
683.63092041,8060.775
683.903625488,8079.25
684.176330566,8053.85
684.448913574,8051.3
684.721557617,8048.95
684.99420166,8140.375
685.266662598,8094.05
685.539245605,8126.75
685.811767578,8184.4
686.084289551,8191.4
686.356689453,8212.0
686.629150391,8241.425
686.901550293,8272.175
687.17401123,8261.35
687.446350098,8299.975
687.718688965,8293.25
687.990966797,8372.95
688.263305664,8387.0
688.535522461,8359.175
688.807739258,8340.575
689.079956055,8429.55
689.352172852,8438.05
689.624328613,8414.35
689.896484375,8469.8
690.168518066,8447.9
690.440612793,8503.825
690.71270752,8488.45
690.984741211,8518.325
691.256713867,8546.2
691.528747559,8485.75
691.800720215,8528.425
692.072631836,8560.0
692.344543457,8570.35
692.616394043,8601.775
692.888244629,8608.525
693.160095215,8650.75
693.431945801,8682.15
693.703674316,8656.475
693.975463867,8645.0
694.247131348,8708.225
694.518859863,8718.125
694.790588379,8742.525
695.062255859,8732.05
695.33380127,8721.725
695.60546875,8726.025
695.87701416,8765.1
696.148498535,8765.95
696.42010498,8800.925
696.691589355,8833.55
696.96307373,8876.525
697.234558105,8912.925
697.50592041,8888.05
697.777282715,8918.65
698.048706055,8896.25
698.320068359,8948.35
698.591308594,8943.8
698.862670898,8923.475
699.133972168,8973.3
699.405151367,8947.025
699.676391602,9010.95
699.947570801,9001.5
700.21875,9018.925
700.489868164,9023.75
700.761047363,9018.925
701.032104492,9090.125
701.303100586,9035.55
701.57421875,9096.8
701.845214844,9090.6
702.116149902,9143.975
702.387207031,9107.5
702.65814209,9132.7
702.928955078,9204.475
703.199951172,9148.2
703.47076416,9103.95
703.741577148,9130.875
704.012451172,9183.075
704.28314209,9182.35
704.553955078,9185.05
704.824707031,9248.075
705.095397949,9236.95
705.366027832,9271.325
705.63671875,9314.425
705.907348633,9246.95
706.17791748,9261.35
706.448486328,9283.05
706.719055176,9327.025
706.989562988,9321.85
707.260131836,9335.5
707.530517578,9367.375
707.800964355,9347.275
708.071411133,9317.975
708.341796875,9308.3
708.612182617,9318.85
708.882446289,9320.85
709.152893066,9354.4
709.423156738,9349.35
709.693359375,9308.5
709.963623047,9346.875
710.233825684,9375.25
710.503967285,9353.225
710.774169922,9388.8
711.044311523,9381.6
711.31439209,9382.125
711.584533691,9393.0
711.854553223,9385.75
712.124572754,9417.025
712.39465332,9392.075
712.664611816,9465.575
712.934509277,9471.15
713.204467773,9439.35
713.474365234,9473.25
713.74420166,9446.925
714.014099121,9485.825
714.283874512,9468.025
714.553710938,9477.575
714.823486328,9500.375
715.093200684,9488.35
715.362915039,9502.6
715.632629395,9479.85
715.902282715,9458.675
716.171875,9461.35
716.441589355,9480.725
716.711181641,9460.175
716.980712891,9475.3
717.250244141,9476.5
717.519775391,9483.55
717.78918457,9463.6
718.058654785,9564.55
718.328125,9608.475
718.597473145,9552.475
718.866882324,9512.125
719.136230469,9543.925
719.405578613,9550.175
719.674865723,9570.825
719.944152832,9516.225
720.213439941,9543.225
720.48260498,9584.25
720.75177002,9595.1
721.020996094,9580.525
721.290100098,9575.575
721.559204102,9553.125
721.828308105,9602.525
722.097351074,9578.45
722.366455078,9544.075
722.635437012,9568.65
722.904418945,9528.0
723.173400879,9568.175
723.442321777,9600.025
723.711181641,9578.05
723.980102539,9608.9
724.248962402,9626.825
724.51776123,9582.325
724.786560059,9628.025
725.055358887,9639.65
725.324035645,9597.55
725.592834473,9609.15
725.86151123,9608.5
726.130187988,9587.95
726.398803711,9557.175
726.667419434,9570.975
726.935974121,9593.3
727.204528809,9536.425
727.473083496,9550.025
727.741638184,9527.1
728.010070801,9492.575
728.278564453,9514.55
728.546936035,9489.725
728.815368652,9433.2
729.08380127,9334.95
729.352111816,9295.475
729.620361328,9264.2
729.88873291,9297.675
730.156982422,9329.55
730.425231934,9350.275
730.693481445,9361.975
730.961669922,9407.125
731.229797363,9425.425
731.49798584,9463.925
731.766113281,9541.0
732.034118652,9603.25
732.302246094,9674.675
732.570251465,9726.825
732.838256836,9735.75
733.106262207,9847.55
733.374145508,9851.2
733.642089844,9901.9
733.909973145,9959.75
734.177856445,10054.525
734.445678711,10124.425
734.713562012,10246.575
734.981323242,10228.65
735.249084473,10272.3
735.516845703,10479.4
735.784545898,10509.575
736.052185059,10581.525
736.319885254,10687.775
736.587524414,10727.95
736.855102539,10783.225
737.122619629,10946.15
737.390197754,10958.45
737.657714844,11077.025
737.925170898,11143.725
738.192749023,11259.4
738.460144043,11316.025
738.727539062,11375.3
738.994995117,11483.225
739.262329102,11600.075
739.529663086,11714.6
739.79699707,11721.85
740.06427002,11812.775
740.331481934,11890.825
740.598754883,11922.425
740.865905762,11959.475
741.133056641,12134.675
741.40032959,12126.525
741.667358398,12194.825
741.934448242,12267.325
742.201599121,12286.775
742.468566895,12431.575
742.735534668,12463.65
743.002563477,12502.425
743.26953125,12492.1
743.536437988,12563.6
743.803405762,12686.875
744.0703125,12641.55
744.337097168,12762.0
744.604003906,12645.275
744.870727539,12781.575
745.137512207,12820.45
745.40423584,12837.2
745.670959473,12765.225
745.93762207,12819.55
746.204284668,12831.675
746.470947266,12874.625
746.737548828,12834.5
747.004089355,12900.85
747.270751953,12899.1
747.53717041,12934.25
747.803710938,12846.75
748.070251465,12899.05
748.336608887,12876.1
748.603027344,12853.625
748.869445801,12852.55
749.135803223,12883.025
749.402099609,12882.25
749.668457031,12857.85
749.934753418,12842.75
750.20098877,12777.7
750.467224121,12830.55
750.733459473,12782.725
750.999572754,12798.95
751.26574707,12685.575
751.531860352,12747.85
751.797912598,12710.9
752.064025879,12623.425
752.330078125,12674.65
752.596069336,12611.45
752.862060547,12583.525
753.127990723,12591.225
753.393920898,12548.85
753.659912109,12508.7
753.925720215,12579.25
754.19152832,12494.55
754.457397461,12430.925
754.723144531,12399.9
754.988952637,12346.775
755.254699707,12383.775
755.520385742,12391.5
755.786071777,12403.225
756.051696777,12326.0
756.317382812,12311.55
756.582946777,12250.875
756.848510742,12278.2
757.114074707,12233.325
757.379577637,12215.325
757.645080566,12273.8
757.910583496,12238.35
758.175964355,12141.3
758.441345215,12139.15
758.706848145,11980.9
758.972106934,12000.825
759.237426758,12043.0
759.502807617,12065.275
759.768005371,12045.825
760.03326416,11984.7
760.298522949,11908.375
760.563659668,11984.5
760.828857422,11910.175
761.093994141,11922.2
761.359130859,11875.95
761.624206543,11825.95
761.889282227,11791.125
762.15423584,11768.95
762.419250488,11754.15
762.684265137,11703.2
762.949157715,11696.825
763.214050293,11681.1
763.479003906,11654.35
763.743835449,11634.875
764.008666992,11615.575
764.2734375,11572.5
764.538208008,11616.65
764.802978516,11639.425
765.067687988,11615.0
765.332397461,11607.325
765.597045898,11576.8
765.861694336,11556.05
766.126342773,11506.4
766.390930176,11515.475
766.655395508,11452.625
766.920043945,11407.525
767.184509277,11400.5
767.448974609,11430.375
767.713439941,11382.625
767.977783203,11332.35
768.2421875,11368.85
768.506591797,11267.675
768.770874023,11389.075
769.03515625,11355.5
769.299499512,11330.25
769.563720703,11309.0
769.827941895,11265.225
770.092163086,11250.05
770.356323242,11244.025
770.620483398,11266.9
770.88458252,11268.75
771.148681641,11281.775
771.412719727,11245.775
771.676757812,11244.35
771.940734863,11176.475
772.204711914,11160.075
772.468688965,11134.875
772.73260498,11118.675
772.996459961,11132.525
773.260314941,9896.5
773.524169922,1265.65
773.787963867,155.25
774.051696777,122.975
774.315551758,119.8
774.579223633,122.025
774.842895508,117.95
775.106567383,121.225
775.370239258,118.525
775.633789062,123.225
775.897399902,124.65
776.160949707,116.275
776.424499512,117.775
776.687988281,121.75
776.951477051,126.1
777.214904785,119.325
777.47833252,120.3
