191.299911499,99.725
191.603515625,101.775
191.907119751,98.7
192.210693359,106.675
192.514251709,99.65
192.817810059,102.375
193.121368408,104.525
193.42489624,105.125
193.728408813,97.175
194.031936646,99.275
194.33543396,93.275
194.638916016,113.65
194.94241333,96.875
195.245880127,95.575
195.549331665,96.325
195.852767944,98.575
196.156204224,174.4
196.459625244,166.15
196.763015747,170.4
197.066436768,179.225
197.369812012,168.325
197.673187256,172.35
197.9765625,167.95
198.279922485,170.9
198.583251953,167.175
198.886581421,168.05
199.18989563,175.325
199.493209839,172.925
199.79649353,163.4
200.09979248,176.275
200.403076172,169.95
200.706314087,168.65
201.009567261,169.6
201.312820435,172.475
201.616027832,164.25
201.919235229,160.15
202.222457886,167.975
202.525634766,169.9
202.828826904,162.025
203.132003784,159.225
203.435150146,165.275
203.738296509,160.275
204.041412354,160.625
204.344558716,164.9
204.647659302,168.175
204.950759888,170.125
205.253845215,166.525
205.556930542,165.85
205.859985352,168.325
206.163024902,164.85
206.466079712,164.3
206.769104004,172.7
207.072113037,164.525
207.375137329,164.2
207.678131104,164.225
207.981109619,165.175
208.284088135,163.6
208.587036133,165.45
208.889984131,165.85
209.19291687,173.75
209.495849609,170.425
209.798751831,167.9
210.101654053,169.475
210.404556274,169.75
210.707427979,167.6
211.010269165,177.125
211.31312561,175.9
211.615982056,171.35
211.918807983,173.475
212.221618652,171.725
212.524429321,164.4
212.827224731,172.125
213.130004883,167.85
213.432769775,173.075
213.735534668,170.525
214.038269043,172.05
214.341003418,169.825
214.643737793,173.1
214.946456909,174.6
215.249145508,178.275
215.551834106,179.475
215.854507446,178.35
216.157165527,175.325
216.45980835,176.8
216.762451172,178.425
217.065078735,180.875
217.36769104,178.85
217.670303345,180.5
217.972885132,181.65
218.275466919,185.1
218.578048706,177.5
218.880599976,189.975
219.183120728,184.1
219.485656738,191.9
219.788192749,199.625
220.090682983,214.625
220.393188477,231.2
220.695663452,247.25
220.998138428,269.65
221.300582886,304.675
221.603042603,318.8
221.905487061,350.0
222.207901001,383.175
222.510299683,423.2
222.812728882,466.25
223.115097046,508.525
223.41746521,558.875
223.719848633,594.4
224.022171021,635.75
224.324508667,668.475
224.626846313,723.975
224.929168701,764.15
225.231460571,816.0
225.533737183,847.775
225.836013794,883.4
226.138290405,923.45
226.440536499,952.45
226.742767334,983.375
227.044998169,1002.4
227.347213745,1043.575
227.649429321,1071.575
227.951629639,1081.425
228.253799438,1092.75
228.555953979,1109.35
228.858123779,1123.0
229.160263062,1131.1
229.462371826,1130.75
229.764511108,1137.2
230.066619873,1153.875
230.36869812,1163.85
230.670776367,1167.025
230.972854614,1169.55
231.274902344,1177.325
231.576950073,1196.55
231.878967285,1202.025
232.180999756,1200.1
232.48298645,1207.55
232.784988403,1218.75
233.086975098,1221.725
233.388946533,1235.825
233.69090271,1238.25
233.992858887,1251.475
234.294769287,1232.25
234.596694946,1238.425
234.898605347,1259.125
235.200500488,1245.325
235.502380371,1242.275
235.804244995,1240.65
236.106109619,1220.7
236.407958984,1224.55
236.709777832,1214.925
237.011581421,1211.5
237.313400269,1193.525
237.615203857,1201.125
237.916976929,1202.425
238.21875,1185.075
238.520507812,1173.175
238.822250366,1193.525
239.12399292,1167.35
239.425704956,1193.125
239.727401733,1158.625
240.02911377,1172.225
240.330780029,1153.05
240.632446289,1142.6
240.93409729,1146.425
241.23576355,1147.925
241.537384033,1147.4
241.839004517,1143.025
242.140594482,1136.55
242.442199707,1147.725
242.743774414,1138.475
243.045333862,1155.975
243.346923828,1135.375
243.648452759,1146.7
243.949966431,1143.275
244.251495361,1148.45
244.552993774,1154.675
244.854492188,1141.1
245.155975342,1134.45
245.457443237,1148.5
245.758880615,1143.775
246.060333252,1148.55
246.36177063,1133.0
246.66317749,1136.425
246.964569092,1124.325
247.265945435,1129.875
247.567337036,1127.65
247.86869812,1139.875
248.170059204,1146.55
248.471389771,1142.1
248.772705078,1161.675
249.074035645,1168.775
249.375335693,1171.85
249.676620483,1202.625
249.977890015,1206.1
250.279159546,1224.975
250.58039856,1243.5
250.881637573,1267.125
251.182876587,1266.575
251.484069824,1295.675
251.785263062,1313.8
252.086456299,1369.775
252.387619019,1372.525
252.688781738,1402.4
252.989929199,1425.6
253.291061401,1464.05
253.592178345,1486.875
253.893280029,1524.925
254.194366455,1544.775
254.49546814,1570.45
254.796524048,1600.525
255.097579956,1643.35
255.398620605,1659.3
255.699645996,1695.825
256.000640869,1704.0
256.30166626,1747.4
256.602661133,1780.125
256.903656006,1794.525
257.204589844,1829.075
257.505523682,1845.825
257.80645752,1879.35
258.107391357,1895.725
258.408294678,1916.975
258.709228516,1927.5
259.010070801,1940.3
259.310943604,1964.1
259.611846924,1976.975
259.912658691,1989.725
260.213500977,2012.225
260.514343262,2017.675
260.815124512,2028.025
261.115936279,2043.725
261.416717529,2041.4
261.717468262,2075.025
262.018218994,2090.9
262.318969727,2106.9
262.619689941,2151.35
262.920410156,2173.75
263.221130371,2225.65
263.521789551,2264.025
263.822479248,2307.675
264.123138428,2357.45
264.42376709,2396.725
264.72442627,2399.0
265.025054932,2447.5
265.325622559,2488.35
265.626251221,2502.575
265.926818848,2528.125
266.227386475,2524.625
266.527954102,2536.025
266.828460693,2561.775
267.12902832,2537.95
267.429534912,2567.5
267.730010986,2576.05
268.030517578,2583.025
268.330993652,2590.4
268.631439209,2595.775
268.931915283,2608.7
269.232299805,2626.125
269.532745361,2636.6
269.8331604,2627.95
270.133544922,2668.725
270.433929443,2675.625
270.734313965,2695.05
271.034637451,2724.6
271.334991455,2734.575
271.635314941,2784.35
271.935638428,2814.825
272.235931396,2879.525
272.536254883,2909.225
272.836486816,2947.075
273.136749268,3020.5
273.437011719,3098.65
273.737213135,3172.875
274.037445068,3245.825
274.337677002,3309.925
274.6378479,3382.725
274.938049316,3502.15
275.238220215,3565.025
275.538360596,3664.775
275.838500977,3731.375
276.138641357,3867.625
276.438751221,3912.2
276.738830566,3991.4
277.03894043,4074.775
277.338989258,4165.25
277.639038086,4252.325
277.939056396,4336.85
278.239105225,4376.1
278.539093018,4496.975
278.839141846,4543.95
279.139129639,4629.175
279.439086914,4695.95
279.739044189,4776.075
280.039001465,4838.225
280.338928223,4907.75
280.63885498,4985.125
280.938781738,5042.675
281.238647461,5095.95
281.538513184,5163.375
281.838409424,5227.75
282.138244629,5295.75
282.438079834,5312.875
282.737945557,5377.75
283.037719727,5432.825
283.337524414,5500.875
283.637298584,5530.6
283.937072754,5569.95
284.236816406,5613.975
284.536560059,5649.675
284.836303711,5670.5
285.136016846,5736.9
285.43572998,5788.1
285.735412598,5805.675
286.035064697,5850.525
286.334747314,5924.125
286.634368896,5949.05
286.933990479,5940.9
287.233642578,5933.65
287.533203125,5957.0
287.832824707,5918.4
288.132385254,5887.65
288.431945801,5813.475
288.731506348,5752.6
289.031036377,5656.35
289.330566406,5584.25
289.630065918,5607.525
289.92956543,5603.3
290.229034424,5703.85
290.528503418,5858.725
290.827941895,6014.05
291.127380371,6154.875
291.42678833,6245.35
291.726226807,6373.125
292.025604248,6418.725
292.324981689,6496.775
292.624359131,6519.425
292.923736572,6538.425
293.223052979,6587.075
293.522369385,6614.925
293.821685791,6574.275
294.12097168,6565.95
294.420257568,6543.9
294.719543457,6562.05
295.018768311,6585.275
295.318023682,6521.5
295.617248535,6501.2
295.916442871,6481.175
296.215667725,6410.825
296.514862061,6317.95
296.813995361,6172.25
297.11315918,5994.85
297.412322998,5890.0
297.711425781,5882.025
298.010559082,6025.875
298.309631348,6213.975
298.608734131,6408.15
298.907806396,6574.875
299.206848145,6710.55
299.505889893,6753.15
299.804901123,6884.8
300.103912354,6943.1
300.402954102,7005.2
300.701904297,7069.175
301.00088501,7120.525
301.299835205,7202.725
301.5987854,7231.575
301.897735596,7314.95
302.196624756,7360.15
302.495513916,7416.7
302.794403076,7472.375
303.093292236,7510.2
303.392120361,7571.825
303.690979004,7642.575
303.989837646,7704.9
304.288604736,7756.075
304.587402344,7741.925
304.886199951,7800.475
305.184967041,7846.125
305.483734131,7868.85
305.782501221,7912.625
306.081176758,7923.65
306.37991333,7935.475
306.678619385,7945.2
306.977294922,7956.75
307.275970459,7990.475
307.574645996,8026.375
307.873260498,7973.025
308.171875,7987.95
308.470489502,8003.625
308.769104004,7934.525
309.067687988,7946.175
309.366241455,7949.325
309.664794922,7915.45
309.963348389,7920.125
310.261871338,7935.95
310.560394287,7909.1
310.858856201,7930.05
311.157348633,7969.55
311.455810547,7998.925
311.754272461,8001.7
312.052703857,8064.225
312.351135254,8076.25
312.649536133,8081.375
312.947937012,8059.925
313.246307373,8097.175
313.544647217,8093.45
313.843017578,8050.85
314.141387939,8047.825
314.439697266,8054.625
314.738006592,8020.375
315.036315918,7940.4
315.334564209,7853.5
315.6328125,7820.175
315.931091309,7771.55
316.229309082,7643.275
316.527526855,7526.35
316.825744629,7525.975
317.123901367,7416.3
317.422088623,7397.675
317.720245361,7395.7
318.0184021,7399.475
318.316497803,7426.55
318.614654541,7449.525
318.912750244,7528.325
319.21081543,7523.525
319.50894165,7585.5
319.806945801,7567.725
320.104980469,7561.775
320.403045654,7564.525
320.701049805,7520.2
320.999023438,7511.725
321.297027588,7482.325
321.595001221,7448.025
321.892913818,7411.325
322.190887451,7346.95
322.488830566,7330.0
322.786712646,7280.175
323.084625244,7189.625
323.382507324,7184.475
323.680358887,7134.725
323.978210449,7042.725
324.276062012,7010.775
324.573852539,6944.075
324.871643066,6902.225
325.169464111,6857.775
325.467224121,6792.9
325.764984131,6722.025
326.062744141,6672.425
326.360473633,6584.95
326.658203125,6540.9
326.955871582,6471.975
327.253570557,6414.975
327.551239014,6380.0
327.848907471,6336.6
328.146514893,6246.275
328.444152832,6202.4
328.741790771,6138.775
329.039367676,6092.375
329.336914062,6030.85
329.634521484,5978.525
329.932067871,5963.875
330.229553223,5862.7
330.527160645,5834.35
330.824615479,5810.45
331.12210083,5726.65
331.419586182,5619.15
331.717041016,5568.45
332.014465332,5487.325
332.311920166,5476.4
332.609313965,5416.1
332.906707764,5421.35
333.204101562,5412.075
333.501495361,5401.7
333.798828125,5448.375
334.096160889,5490.2
334.39352417,5550.175
334.690795898,5605.25
334.988098145,5632.4
335.285400391,5684.625
335.582641602,5683.65
335.879882812,5717.35
336.177124023,5732.0
336.474334717,5775.4
336.77154541,5785.1
337.068725586,5797.175
337.365905762,5808.175
337.66305542,5821.5
337.960205078,5853.9
338.257324219,5875.5
338.554443359,5858.575
338.8515625,5900.3
339.148590088,5895.95
339.445648193,5911.375
339.742736816,5845.775
340.039764404,5859.55
340.336761475,5835.925
340.63381958,5764.775
340.930755615,5755.025
341.227722168,5680.125
341.524688721,5601.4
341.821624756,5570.3
342.118560791,5590.55
342.415496826,5671.25
342.712402344,5796.275
343.009246826,5913.95
343.306121826,6032.5
343.602966309,6059.775
343.899810791,6157.175
344.196624756,6209.5
344.493438721,6255.075
344.79019165,6264.825
345.086975098,6338.975
345.383758545,6378.2
345.680480957,6336.55
345.977203369,6378.4
346.273956299,6422.075
346.570617676,6391.8
346.86730957,6405.4
347.163970947,6395.4
347.460601807,6448.425
347.757232666,6437.95
348.053894043,6426.025
348.350463867,6368.975
348.647064209,6345.825
348.943634033,6330.75
349.24017334,6373.725
349.536712646,6304.1
349.833251953,6332.0
350.129760742,6282.7
350.426208496,6284.175
350.722747803,6253.95
351.019195557,6238.05
351.315612793,6196.5
351.612060547,6189.625
351.908508301,6149.575
352.204864502,6086.975
352.501281738,6030.725
352.797637939,5977.175
353.093963623,5906.9
353.390319824,5859.35
353.686645508,5755.775
353.982940674,5720.275
354.27923584,5686.55
354.575531006,5624.875
354.871765137,5627.8
355.167999268,5595.725
355.464233398,5607.825
355.760437012,5610.35
356.056640625,5607.525
356.352813721,5615.8
356.648956299,5607.975
356.945129395,5636.075
357.241271973,5643.8
357.537384033,5648.8
357.833496094,5604.225
358.129577637,5564.475
358.425628662,5569.375
358.721679688,5526.025
359.017730713,5529.15
359.313720703,5474.85
359.609710693,5454.675
359.905761719,5380.875
360.201721191,5371.85
360.497650146,5308.125
360.793609619,5282.25
361.089538574,5210.9
361.385437012,5156.425
361.681365967,5111.725
361.977233887,5071.45
362.273071289,5018.0
362.568908691,4930.1
362.864746094,4819.675
363.160552979,4704.425
363.456359863,4538.75
363.752166748,4391.95
364.047912598,4346.025
364.343658447,4324.35
364.639434814,4325.075
364.935119629,4369.975
365.230834961,4427.4
365.526550293,4447.725
365.822174072,4474.425
366.117858887,4498.65
366.413482666,4498.125
366.709075928,4540.6
367.004730225,4452.7
367.300292969,4467.925
367.595855713,4489.95
367.891448975,4399.95
368.186981201,4300.425
368.482513428,4283.05
368.778015137,4281.525
369.073547363,4233.125
369.36895752,4241.975
369.664428711,4146.775
369.95993042,4026.85
370.255310059,4001.125
370.550720215,3989.85
370.846160889,3951.75
371.14151001,3915.475
371.436859131,3891.25
371.73223877,3860.1
372.027557373,3843.7
372.322875977,3796.15
372.618164062,3765.65
372.913482666,3732.95
373.208709717,3725.425
373.503967285,3658.55
373.799194336,3620.4
374.094421387,3609.8
374.389648438,3604.55
374.684844971,3591.45
374.979980469,3618.0
375.275146484,3636.575
375.570281982,3654.35
375.865386963,3667.775
376.160522461,3615.95
376.455596924,3631.475
376.750640869,3707.6
377.045715332,3716.075
377.340759277,3736.75
377.635772705,3809.15
377.93081665,3833.95
378.225769043,3898.15
378.520751953,3948.225
378.815734863,3907.45
379.110656738,4055.9
379.405548096,4226.6
379.700500488,4078.925
379.995391846,3885.7
380.290252686,3915.15
380.585083008,4019.475
380.879974365,4061.2
381.17477417,3981.1
381.469543457,3930.1
381.764404297,3911.325
382.059143066,3932.0
382.353912354,4030.225
382.648651123,4105.475
382.943389893,4107.525
383.238067627,3941.825
383.532775879,3943.725
383.827484131,3901.125
384.12210083,3880.45
384.416778564,3851.925
384.711425781,3747.05
385.006011963,3766.675
385.300628662,3770.0
385.595184326,3830.7
385.88973999,3929.625
386.184295654,4028.075
386.478820801,4080.5
386.77331543,4183.15
387.067840576,4266.8
387.362335205,4340.5
387.656768799,4415.85
387.951202393,4472.775
388.245635986,4523.775
388.540039062,4602.95
388.834472656,4669.025
389.128875732,4554.3
389.423187256,4332.325
389.717559814,4302.75
390.011871338,4399.45
390.306182861,4433.25
390.600463867,4444.725
390.894775391,4514.85
391.189025879,4537.675
391.48324585,4534.125
391.777526855,4581.425
392.071685791,4783.65
392.365875244,4865.4
392.660064697,4921.025
392.95425415,5233.85
393.248382568,5234.425
393.542510986,4761.325
393.836608887,4626.45
394.130706787,4626.7
394.424804688,4574.675
394.71887207,4702.175
395.012878418,4650.2
395.306915283,4562.6
395.600921631,4496.275
395.894927979,4477.175
396.188903809,4509.475
396.482879639,4519.55
396.776794434,4724.175
397.070739746,4679.325
397.364654541,4703.75
397.658538818,5079.125
397.952423096,5096.75
398.246307373,5038.975
398.540100098,5555.525
398.833953857,5433.175
399.127746582,4994.85
399.421508789,5001.7
399.715301514,4936.125
400.009063721,4834.85
400.30279541,4713.45
400.596496582,4623.075
400.890258789,4791.75
401.183929443,4867.775
401.47756958,4760.5
401.771240234,4537.875
402.064880371,4561.75
402.35848999,4593.475
402.652130127,4500.725
402.945678711,4555.525
403.239257812,4522.85
403.532775879,4487.25
403.82635498,4484.4
404.119842529,4438.35
404.413360596,4417.925
404.706848145,4485.575
405.000274658,4411.15
405.293762207,4472.425
405.587188721,4534.625
405.880584717,4376.825
406.17401123,4221.9
406.467407227,4039.4
406.760742188,4041.85
407.054107666,4062.45
407.347442627,4006.95
407.640716553,3991.825
407.934051514,4052.925
408.227325439,4096.325
408.520568848,4307.775
408.813842773,4391.775
409.107086182,4191.6
409.400238037,4162.925
409.693450928,4080.475
409.986633301,4199.125
410.279754639,4120.125
410.572875977,3839.1
410.86605835,3786.775
411.159118652,3799.575
411.452209473,3805.75
411.745330811,3675.85
412.038360596,3609.9
412.331390381,3643.725
412.624420166,3677.825
412.917388916,3574.425
413.210388184,3415.875
413.503387451,3412.0
413.796295166,3313.4
414.089233398,3145.525
414.382141113,3061.225
414.675048828,3043.925
414.967926025,3087.75
415.260803223,3035.25
415.55368042,3051.175
415.846466064,3035.3
416.139282227,3100.1
416.432098389,3204.025
416.724853516,3193.6
417.017608643,3146.775
417.31036377,3166.1
417.603088379,3284.65
417.895782471,3247.05
418.188476562,3218.725
418.481140137,3291.525
418.773803711,3327.525
419.066436768,3313.675
419.359039307,3389.425
419.651641846,3395.1
419.944244385,3374.275
420.236816406,3364.475
420.529327393,3538.9
420.821899414,3616.825
421.114379883,3534.275
421.406860352,3793.225
421.699371338,3994.925
421.991821289,3949.25
422.284240723,3759.65
422.576721191,3628.95
422.869110107,3514.25
423.161468506,3470.55
423.453857422,3520.825
423.74621582,3377.675
424.038543701,3265.65
424.330871582,3237.725
424.623168945,3185.025
424.915435791,3314.475
425.207702637,3257.975
425.499969482,3235.6
425.792205811,3165.65
426.084411621,2926.225
426.376617432,3005.4
426.668762207,3079.3
426.9609375,2972.35
427.253082275,3058.45
427.545196533,3457.25
427.837310791,3182.825
428.129425049,2925.0
428.421447754,3136.025
428.713531494,3125.525
429.005554199,3119.525
429.297576904,3130.55
429.589599609,3522.2
429.881561279,3828.475
430.173522949,3617.175
430.465484619,3580.0
430.757415771,3649.4
431.049316406,3435.95
431.341186523,3210.525
431.633117676,3131.45
431.924957275,2841.325
432.21673584,2737.925
432.508636475,2879.05
432.800415039,2883.4
433.092163086,2785.2
433.383972168,2760.925
433.675689697,3424.25
433.967437744,3874.0
434.259155273,3005.475
434.550872803,2719.4
434.842498779,2758.725
435.134185791,2898.9
435.425842285,2905.875
435.717437744,2826.275
436.009063721,2642.075
436.30065918,2756.35
436.592224121,3089.925
436.883758545,2912.5
437.175323486,2662.275
437.466827393,2638.025
437.758331299,2650.675
438.049804688,2671.05
438.341247559,2743.475
438.63269043,2809.2
438.924163818,2802.15
439.215515137,2764.925
439.50692749,2662.125
439.798309326,2671.975
440.089660645,2679.85
440.380981445,2605.2
440.672332764,2600.65
440.963623047,2837.45
441.254882812,3263.325
441.546173096,3434.375
441.837402344,3204.225
442.128631592,3027.2
442.41986084,3015.025
442.711029053,2898.825
443.002197266,2956.3
443.293365479,3122.425
443.584503174,3258.075
443.875610352,3223.85
444.166717529,2973.525
444.457794189,3028.825
444.748840332,3001.55
445.039916992,2967.925
445.330932617,3068.0
445.621948242,2912.35
445.912963867,2735.975
446.203918457,2963.475
446.494812012,3170.475
446.785827637,2963.525
447.076721191,2800.625
447.367584229,2785.25
447.658447266,2756.325
447.949371338,2812.775
448.24017334,2692.275
448.530975342,2629.325
448.821838379,2792.9
449.112579346,2848.15
449.40335083,2786.8
449.694152832,2828.4
449.984863281,2834.3
450.27557373,2768.0
450.56628418,2822.25
450.856933594,2840.35
451.147583008,2695.85
451.438262939,2595.4
451.728881836,2767.825
452.019470215,2862.55
452.310089111,2680.95
452.600646973,2702.025
452.891174316,2754.925
453.181732178,2584.35
453.472229004,2480.2
453.762695312,2563.525
454.053222656,2604.45
454.343658447,2476.6
454.634063721,2426.325
454.924530029,2576.45
455.214935303,2716.125
455.505279541,2782.925
455.795715332,2644.725
456.086029053,2456.2
456.376312256,2455.8
456.666687012,2484.5
456.956939697,2573.75
457.247192383,2575.2
457.537445068,2650.5
457.827728271,2813.3
458.117919922,2748.225
458.408081055,2674.9
458.698303223,2842.05
458.988433838,2784.0
459.278564453,2613.375
459.568725586,2857.55
459.858825684,2981.375
460.148864746,2688.0
460.438995361,2665.0
460.729034424,2694.3
461.019042969,2719.7
461.309082031,2897.55
461.599060059,2768.125
461.889007568,2379.65
462.179016113,2195.175
462.468933105,2424.875
462.75881958,2530.625
463.048736572,2280.675
463.338592529,2538.4
463.628448486,2860.05
463.918365479,2597.8
464.2081604,2743.15
464.497924805,2706.875
464.787780762,2820.55
465.077514648,3114.4
465.367218018,2744.725
465.657012939,2942.575
465.946685791,3326.7
466.236358643,2945.625
466.526092529,2471.925
466.815734863,2467.55
467.105316162,2397.325
467.394927979,2407.65
467.684570312,2278.45
467.974121094,2375.625
468.263671875,2457.35
468.553222656,2254.425
468.842773438,2168.5
469.132232666,2064.325
469.42175293,2086.6
469.711212158,2064.525
470.000640869,1952.425
470.290100098,1997.875
470.579498291,2055.4
470.868835449,2042.975
471.158294678,1998.95
471.447601318,1974.8
471.736907959,2047.25
472.026275635,2117.575
472.315551758,2093.4
472.604797363,2076.9
472.894104004,2212.15
473.183319092,2315.45
473.47253418,2303.95
473.761779785,2292.275
474.05090332,2230.15
474.340087891,2184.65
474.629241943,2127.25
474.918365479,2289.825
475.207427979,2531.675
475.496551514,2555.525
475.785614014,2310.125
476.074645996,2126.425
476.363708496,2211.9
476.652679443,2344.675
476.941650391,2176.325
477.230682373,2036.05
477.519622803,2038.875
477.808502197,2170.3
478.097412109,2418.525
478.386352539,2370.375
478.675201416,2136.8
478.964050293,2029.75
479.25289917,2206.325
479.541717529,2254.05
479.830474854,2106.35
480.11932373,2427.925
480.408050537,2603.35
480.696777344,2237.85
480.985534668,2115.075
481.274200439,2201.175
481.562866211,2443.725
481.851593018,2458.525
482.140197754,2398.85
482.428833008,2244.55
482.717468262,2058.175
483.006011963,2098.95
483.294586182,2213.4
483.5831604,2243.15
483.871673584,2109.25
484.16015625,2251.825
484.448699951,2458.275
484.7371521,2490.5
485.02557373,2498.55
485.314025879,2257.375
485.602416992,3500.05
485.890777588,12424.75
486.179199219,11085.9
486.467559814,2963.45
486.755859375,2172.0
487.044219971,2519.8
487.332519531,2682.05
487.620758057,2301.175
487.908966064,2072.875
488.197265625,1869.05
488.485473633,1791.175
488.773651123,1900.375
489.061859131,1885.45
489.350006104,1845.45
489.638122559,1792.45
489.926300049,1802.925
490.214355469,1756.4
490.502441406,1713.275
490.790527344,1656.375
491.078552246,1822.05
491.366546631,1827.325
491.654602051,1605.15
491.942565918,1684.05
492.230499268,1716.4
492.518493652,1675.525
492.806396484,1712.05
493.094268799,1640.8
493.382202148,1672.25
493.670074463,1774.65
493.957885742,1627.025
494.245727539,1625.825
494.533508301,1774.75
494.821289062,1681.6
495.109100342,1543.55
495.396850586,1487.85
495.684539795,1451.175
495.972290039,1636.325
496.25994873,1966.125
496.547607422,1975.0
496.835296631,1795.875
497.122894287,1494.9
497.410522461,1424.95
497.6980896,1437.35
497.985687256,1400.875
498.273223877,1488.15
498.560760498,1559.875
498.848266602,1579.575
499.135772705,1556.15
499.423217773,1586.4
499.710693359,1688.475
499.998138428,1631.1
500.285522461,1482.725
500.572937012,1401.775
500.860290527,1458.05
501.147644043,1546.975
501.434997559,1754.625
501.722290039,1629.65
502.00958252,1415.475
502.296875,1661.225
502.584106445,1651.075
502.871337891,1474.275
503.158599854,1557.2
503.445770264,1621.975
503.732910156,1603.65
504.020141602,1425.225
504.307220459,1425.825
504.594329834,1446.15
504.881469727,1380.675
505.168518066,1450.65
505.455535889,1500.85
505.742614746,1391.325
506.029632568,1341.55
506.316589355,1514.6
506.603637695,1592.675
506.890563965,1413.65
507.177459717,1263.6
507.464385986,1187.95
507.751312256,1383.9
508.038146973,1462.75
508.325012207,1340.35
508.611877441,1387.65
508.898681641,1400.225
509.185424805,1239.75
509.472259521,1211.425
509.759002686,1288.8
510.045715332,1319.225
510.332458496,1260.775
510.619140625,1314.9
510.905761719,1244.75
511.192504883,1236.3
511.479095459,1275.925
511.765686035,1240.8
512.052307129,1161.1
512.338928223,1109.75
512.625427246,1163.9
512.91204834,1222.2
513.198486328,1199.65
513.484985352,1161.1
513.77142334,1108.225
514.057922363,1144.0
514.344299316,1140.2
514.63079834,1103.35
514.917175293,1086.2
515.203552246,1007.375
515.489868164,984.95
515.776245117,1094.675
516.0625,1139.275
516.348815918,1046.425
516.635070801,1087.7
516.921325684,1131.5
517.207580566,1074.625
517.493774414,999.875
517.779968262,994.375
518.066101074,1038.85
518.352294922,987.3
518.638366699,992.675
518.924499512,1064.85
519.210632324,1128.65
519.496643066,1100.45
519.782714844,1017.25
520.068786621,976.175
520.354736328,945.35
520.640686035,906.05
520.926757812,948.125
521.212646484,1020.75
521.498535156,1026.525
521.784484863,975.55
522.0703125,919.725
522.356262207,931.45
522.642089844,998.925
522.927856445,990.375
523.213684082,986.375
523.499511719,990.3
523.78527832,1011.925
524.070983887,1058.775
524.356750488,1040.125
524.64239502,1007.125
524.928039551,1002.05
525.213806152,1013.05
525.499389648,1008.6
525.784973145,1033.275
526.070617676,1075.25
526.356140137,1053.275
526.641723633,1050.55
526.927307129,1106.6
527.212768555,1115.45
527.498291016,1085.05
527.783752441,1088.275
528.069213867,1069.525
528.354675293,1088.025
528.640014648,1240.325
528.925476074,1310.125
529.21081543,1230.65
529.496154785,1211.025
529.781555176,1180.825
530.066833496,1202.85
530.352050781,1220.5
530.637390137,1196.125
530.922607422,1191.35
531.207824707,1201.575
531.493041992,1194.125
531.778198242,1253.775
532.063354492,1231.225
532.348571777,1186.8
532.633666992,1202.225
532.918762207,1270.675
533.203857422,1341.35
533.488891602,1378.425
533.773925781,1324.65
534.059020996,1303.025
534.343933105,1326.925
534.628967285,1297.025
534.91394043,1313.3
535.198852539,1337.1
535.483703613,1313.225
535.768676758,1256.15
536.053527832,1261.9
536.338317871,1229.55
536.62322998,1166.025
536.90802002,1156.5
537.192810059,1166.05
537.477539062,1233.775
537.762329102,1284.05
538.047058105,1317.025
538.331726074,1334.15
538.616455078,1325.275
538.901123047,1307.8
539.18572998,1345.55
539.470397949,1361.05
539.755004883,1345.8
540.039550781,1305.025
540.32409668,1271.575
540.608703613,1309.0
540.893188477,1397.075
541.17767334,1413.725
541.462158203,1421.075
541.746643066,1366.3
542.031066895,1388.7
542.315429688,1445.7
542.59979248,1442.525
542.884216309,1426.625
543.168579102,1425.6
543.452941895,1430.85
543.737243652,1475.55
544.021484375,1515.5
544.305725098,1513.225
544.590026855,1488.075
544.874267578,1505.875
545.158447266,1572.425
545.442626953,1484.6
545.726806641,1386.925
546.010925293,1432.7
546.29510498,1460.425
546.579162598,1450.625
546.863220215,1475.55
547.147277832,1537.4
547.431335449,1618.55
547.715332031,1672.625
547.999328613,1775.825
548.283325195,1768.925
548.567260742,1650.625
548.851135254,1631.425
549.135070801,1602.975
549.419006348,1498.35
549.702819824,1592.475
549.986755371,1670.775
550.270507812,1621.2
550.554321289,1682.275
550.83807373,1686.825
551.121826172,1648.075
551.405517578,1666.0
551.689331055,1762.075
551.973022461,1970.55
552.256652832,2032.625
552.540344238,1942.925
552.823974609,1922.7
553.107543945,1916.05
553.391174316,1966.725
553.674743652,2028.375
553.958251953,2021.475
554.241821289,2020.975
554.525268555,1970.675
554.808776855,1966.65
555.092285156,2142.8
555.375671387,2222.55
555.659057617,2201.675
555.942504883,2234.8
556.225891113,2277.3
556.509216309,2233.05
556.792541504,2152.85
557.075866699,2222.9
557.359130859,2268.675
557.64239502,2262.375
557.92565918,2333.3
558.208862305,2301.575
558.49206543,2247.125
558.77532959,2264.25
559.058410645,2320.7
559.341552734,2291.875
559.624694824,2356.15
559.907775879,2417.175
560.190856934,2528.275
560.473937988,2505.85
560.756896973,2549.15
561.039978027,2596.925
561.322937012,2538.825
561.605895996,2542.475
561.88885498,2502.325
562.171813965,2509.4
562.454650879,2502.9
562.737548828,2532.525
563.020446777,2597.9
563.303283691,2607.5
563.58605957,2644.075
563.868896484,2654.075
564.151672363,2698.4
564.434387207,2728.9
564.717163086,2693.05
564.99987793,2736.4
565.282531738,2805.225
565.565185547,2735.85
565.847839355,2746.15
566.130432129,2867.675
566.413085938,2832.6
566.695678711,2843.65
566.978149414,2939.625
567.260681152,3071.95
567.543273926,3132.825
567.825744629,3069.075
568.108154297,3084.35
568.390686035,3198.375
568.673095703,3313.575
568.955505371,3357.8
569.237854004,3370.1
569.520202637,3624.75
569.802490234,3822.8
570.084838867,3798.075
570.367126465,3650.6
570.649414062,3659.125
570.93170166,3991.125
571.213928223,4057.05
571.496154785,3823.575
571.778381348,4038.35
572.06048584,4274.55
572.342590332,3841.1
572.624755859,3526.5
572.906860352,3581.9
573.188903809,4211.2
573.470947266,4441.45
573.752990723,4208.925
574.03503418,4308.9
574.317016602,4666.1
574.598937988,4468.9
574.88092041,4351.3
575.162841797,4532.55
575.444763184,4184.475
575.726623535,3926.425
576.008483887,3972.9
576.290344238,4344.575
576.572143555,4530.85
576.853881836,4566.375
577.135681152,4481.6
577.417419434,4537.0
577.699157715,5331.75
577.980895996,5485.075
578.262573242,4877.25
578.544128418,4440.025
578.825866699,4391.45
579.107421875,4119.5
579.388977051,4277.55
579.670593262,4635.25
579.952148438,4467.325
580.233642578,4567.85
580.515197754,4670.25
580.796691895,4398.375
581.078125,4566.05
581.359619141,5932.4
581.640991211,6012.825
581.922363281,5184.475
582.203796387,5238.2
582.485107422,4891.0
582.766418457,4539.875
583.047790527,4394.125
583.329040527,4294.325
583.610290527,4165.6
583.891540527,4281.475
584.172790527,4574.675
584.453918457,4582.35
584.735107422,4630.225
585.016235352,5040.375
585.297363281,5017.65
585.578552246,4828.625
585.859619141,4761.5
586.140625,4580.525
586.421630859,4427.85
586.702697754,4473.0
586.983642578,4680.25
587.264648438,4829.65
587.545654297,4771.7
587.826477051,4708.7
588.107421875,4554.875
588.388305664,4591.05
588.669189453,4666.775
588.950012207,4542.55
589.230834961,4460.425
589.511657715,4529.275
589.792358398,4605.325
590.073120117,4612.85
590.353881836,4559.2
590.63458252,4614.55
590.915283203,4560.8
591.195922852,4568.35
591.4765625,4618.9
591.757202148,4630.65
592.037780762,4637.725
592.31829834,4630.275
592.598937988,4831.475
592.879394531,4987.55
593.159912109,4878.875
593.440429688,4824.8
593.720825195,4805.6
594.001281738,4802.0
594.281677246,4710.075
594.562072754,4720.2
594.842407227,4810.975
595.122802734,4856.275
595.403137207,4840.775
595.683410645,4839.35
595.963623047,4802.175
596.243896484,4776.825
596.524169922,4783.475
596.804382324,4795.975
597.084533691,4817.55
597.364746094,4839.7
597.644836426,4880.0
597.924987793,4856.9
598.205078125,4829.275
598.485107422,4847.675
598.765197754,4960.625
599.045227051,4997.325
599.325195312,4938.2
599.605224609,4890.475
599.885192871,4933.5
600.165100098,4956.875
600.445007324,4927.225
600.724914551,4914.45
601.004760742,4950.225
601.284667969,4972.05
601.56451416,4923.325
601.844238281,4930.925
602.124084473,4917.6
602.403808594,4921.15
602.683532715,4976.725
602.963256836,4976.85
603.242919922,4991.675
603.522583008,5035.225
603.802246094,4994.125
604.081848145,4976.8
604.36138916,4963.825
604.641052246,4981.475
604.920532227,4967.675
605.200073242,4998.95
605.479614258,5020.125
605.759094238,5074.75
606.038574219,5039.225
606.317932129,4992.775
606.597412109,5017.05
606.87677002,5021.3
607.15612793,5045.65
607.435546875,5055.525
607.714782715,5066.875
607.99407959,5032.8
608.273376465,5022.35
608.552612305,5043.575
608.831848145,5058.8
609.111083984,5046.3
609.390258789,5029.775
609.669433594,5023.3
609.948608398,5102.675
610.227722168,5064.425
610.506713867,5004.6
610.785888672,5036.05
611.064880371,5047.975
611.34387207,5054.625
611.622924805,5059.5
611.901916504,5078.025
612.180847168,5015.625
612.459777832,4997.6
612.738647461,5002.2
613.01751709,4993.775
613.296447754,4958.675
613.575317383,4928.825
613.854064941,4867.075
614.132873535,4808.8
614.411621094,4755.325
614.690368652,4713.25
614.969177246,4691.1
615.247802734,4608.25
615.526489258,4575.7
615.805175781,4505.2
616.08380127,4382.875
616.362365723,4315.3
616.640991211,4259.45
616.919555664,4234.375
617.198059082,4331.65
617.4765625,4576.175
617.755126953,4718.15
618.033569336,4739.4
618.311950684,4734.5
618.590454102,4725.85
618.868774414,4711.425
619.147155762,4721.25
619.425598145,4687.625
619.703857422,4726.325
619.982177734,4727.25
620.260498047,4714.775
620.538757324,4708.55
620.816955566,4677.125
621.095214844,4647.5
621.373413086,4662.225
621.651550293,4724.5
621.929748535,4747.1
622.207824707,4716.175
622.485900879,4742.15
622.764038086,4752.5
623.042053223,4773.65
623.320007324,4797.8
623.598083496,4800.825
623.876037598,4768.025
624.153991699,4794.5
624.432006836,4814.425
624.709838867,4840.45
624.987731934,4813.025
625.265563965,4818.95
625.543395996,4814.925
625.821228027,4870.7
626.098999023,4880.0
626.376831055,4921.7
626.654541016,4921.375
626.932250977,4962.625
627.209960938,4989.075
627.487670898,5007.525
627.765319824,5036.625
628.04296875,5034.6
628.320495605,5050.4
628.598083496,5054.2
628.875671387,5081.2
629.153259277,5107.825
629.430725098,5149.0
629.708251953,5168.025
629.985656738,5172.075
630.263122559,5214.1
630.540588379,5241.35
630.817932129,5251.825
631.095275879,5276.475
631.372680664,5311.825
631.649963379,5343.775
631.927246094,5370.975
632.204589844,5404.1
632.481811523,5476.625
632.759033203,5551.275
633.036254883,5551.275
633.313415527,5617.875
633.590576172,5690.7
633.867736816,5777.3
634.144836426,5808.575
634.421875,5842.025
634.698913574,5922.325
634.976013184,5976.85
635.252990723,6034.075
635.529968262,6066.25
635.807006836,6112.825
636.08392334,6107.7
636.360839844,6041.2
636.637756348,5933.725
636.914611816,5898.1
637.191467285,5891.425
637.468261719,5967.675
637.745056152,5915.5
638.021789551,5931.65
638.298583984,5972.975
638.575317383,5996.75
638.851989746,5973.35
639.12878418,5979.675
639.405395508,5966.2
639.682006836,5984.525
639.958618164,6009.125
640.235229492,5972.4
640.511779785,6019.925
640.788330078,6002.775
641.064880371,5978.275
641.341308594,5949.25
641.617797852,5990.025
641.894226074,5987.375
642.170654297,5993.275
642.44708252,5992.15
642.723388672,5996.2
642.999755859,5975.65
643.276123047,5983.225
643.552429199,5959.4
643.828674316,5967.1
644.104919434,5940.625
644.381164551,5946.55
644.657348633,5927.7
644.933532715,5897.9
645.209716797,5905.4
645.485839844,5894.4
645.761901855,5919.025
646.038024902,5880.6
646.314086914,5924.75
646.590087891,5908.2
646.866149902,5909.9
647.142150879,5850.075
647.41809082,5847.025
647.694030762,5826.2
647.969970703,5822.5
648.245788574,5856.475
648.521728516,5829.125
648.797546387,5823.525
649.073303223,5845.075
649.349182129,5826.275
649.624938965,5794.35
649.900634766,5804.15
650.176391602,5801.4
650.452087402,5764.95
650.727783203,5755.5
651.003479004,5764.025
651.279052734,5749.9
651.554626465,5728.8
651.83026123,5717.975
652.105773926,5761.75
652.381286621,5705.75
652.656860352,5708.475
652.932312012,5717.8
653.207763672,5715.975
653.483215332,5726.125
653.758605957,5703.7
654.033935547,5708.175
654.309326172,5718.25
654.584716797,5723.475
654.859985352,5715.475
655.135253906,5727.2
655.410583496,5721.1
655.685791016,6596.775
655.9609375,10298.225
656.236206055,10060.025
656.511291504,6650.45
656.786437988,5855.6
657.061645508,5729.825
657.336669922,5723.65
657.611694336,5741.15
657.886779785,5746.25
658.161804199,5770.5
658.436828613,5717.85
658.711791992,5702.6
658.986755371,5724.5
659.261657715,5731.675
659.536621094,5746.15
659.811401367,5734.25
660.086303711,5740.95
660.36114502,5752.825
660.635864258,5729.175
660.910644531,5770.25
661.185424805,5752.95
661.460205078,5756.275
661.734863281,5749.7
662.009521484,5723.775
662.284179688,5756.325
662.558776855,5756.575
662.833435059,5794.475
663.108032227,5791.25
663.382568359,5756.2
663.657043457,5797.4
663.93157959,5813.625
664.206054688,5781.55
664.48046875,5820.85
664.755004883,5812.4
665.02935791,5814.1
665.303710938,5828.225
665.578125,5823.95
665.852416992,5843.7
666.126708984,5825.625
666.401062012,5846.975
666.675292969,5860.975
666.949462891,5854.65
667.223754883,5840.025
667.497924805,5867.35
667.772094727,5855.6
668.046264648,5846.075
668.3203125,5879.55
668.594421387,5879.025
668.868469238,5899.8
669.14251709,5897.525
669.416503906,5910.975
669.690551758,5888.975
669.964477539,5902.125
670.23840332,5888.05
670.512329102,5884.0
670.786254883,5854.225
671.060058594,5916.4
671.333984375,5902.375
671.607788086,5907.2
671.881530762,5918.7
672.155334473,5932.7
672.429077148,5918.775
672.702758789,5942.125
672.97644043,5913.425
673.25012207,5899.8
673.523742676,5887.525
673.797302246,5893.9
674.070922852,5930.7
674.344482422,5908.95
674.618041992,5906.825
674.891601562,5908.275
675.165100098,5922.475
675.438476562,5885.45
675.711975098,5913.925
675.985412598,5894.0
676.258789062,5860.425
676.532165527,5909.975
676.805480957,5878.1
677.078796387,5907.05
677.352111816,5890.675
677.625366211,5885.725
677.898620605,5853.5
678.171875,5878.275
678.445007324,5881.525
678.718200684,5895.225
678.991394043,5871.875
679.264404297,5877.475
679.537536621,5881.2
679.81060791,5884.625
680.083679199,5869.6
680.356689453,5881.875
680.629699707,5858.425
680.902648926,5870.625
681.175598145,5879.575
681.448547363,5894.275
681.721435547,5834.85
681.99420166,5840.275
682.267150879,5825.975
682.539916992,5860.45
682.812744141,5843.9
683.085510254,5803.225
683.358215332,5816.8
683.63092041,5794.175
683.903625488,5794.3
684.176330566,5777.65
684.448913574,5755.65
684.721557617,5743.025
684.99420166,5786.7
685.266662598,5775.2
685.539245605,5760.425
685.811767578,5779.75
686.084289551,5792.825
686.356689453,5794.875
686.629150391,5794.2
686.901550293,5834.475
687.17401123,5795.75
687.446350098,5813.6
687.718688965,5792.275
687.990966797,5831.35
688.263305664,5837.2
688.535522461,5820.9
688.807739258,5794.575
689.079956055,5835.25
689.352172852,5841.15
689.624328613,5816.225
689.896484375,5811.975
690.168518066,5794.0
690.440612793,5810.225
690.71270752,5808.575
690.984741211,5819.05
691.256713867,5803.55
691.528747559,5792.55
691.800720215,5795.7
692.072631836,5799.025
692.344543457,5827.35
692.616394043,5818.75
692.888244629,5800.55
693.160095215,5837.475
693.431945801,5849.7
693.703674316,5806.65
693.975463867,5790.05
694.247131348,5785.0
694.518859863,5797.525
694.790588379,5789.875
695.062255859,5799.45
695.33380127,5788.3
695.60546875,5761.8
695.87701416,5772.925
696.148498535,5800.9
696.42010498,5779.6
696.691589355,5806.0
696.96307373,5803.0
697.234558105,5831.225
697.50592041,5806.525
697.777282715,5797.6
698.048706055,5789.725
698.320068359,5821.4
698.591308594,5764.1
698.862670898,5778.625
699.133972168,5803.675
699.405151367,5765.95
699.676391602,5817.85
699.947570801,5776.525
700.21875,5771.2
700.489868164,5760.575
700.761047363,5761.425
701.032104492,5805.65
701.303100586,5757.225
701.57421875,5777.725
701.845214844,5771.175
702.116149902,5789.7
702.387207031,5747.65
702.65814209,5797.625
702.928955078,5752.2
703.199951172,5748.625
703.47076416,5727.075
703.741577148,5707.3
704.012451172,5744.1
704.28314209,5732.325
704.553955078,5720.6
704.824707031,5738.55
705.095397949,5750.825
705.366027832,5767.3
705.63671875,5729.875
705.907348633,5711.75
706.17791748,5706.05
706.448486328,5719.725
706.719055176,5701.45
706.989562988,5695.75
707.260131836,5707.05
707.530517578,5699.55
707.800964355,5688.225
708.071411133,5669.125
708.341796875,5680.075
708.612182617,5683.15
708.882446289,5657.3
709.152893066,5642.175
709.423156738,5659.35
709.693359375,5642.3
709.963623047,5643.525
710.233825684,5660.05
710.503967285,5610.75
710.774169922,5628.3
711.044311523,5604.15
711.31439209,5590.35
711.584533691,5623.575
711.854553223,5605.425
712.124572754,5605.6
712.39465332,5549.65
712.664611816,5591.85
712.934509277,5616.2
713.204467773,5590.075
713.474365234,5595.4
713.74420166,5562.325
714.014099121,5587.175
714.283874512,5555.225
714.553710938,5587.125
714.823486328,5560.325
715.093200684,5552.8
715.362915039,5552.1
715.632629395,5532.0
715.902282715,5503.85
716.171875,5507.1
716.441589355,5484.7
716.711181641,5465.425
716.980712891,5503.6
717.250244141,5482.45
717.519775391,5471.875
717.78918457,5477.875
718.058654785,5512.35
718.328125,5518.525
718.597473145,5477.625
718.866882324,5478.95
719.136230469,5458.825
719.405578613,5495.15
719.674865723,5494.425
719.944152832,5465.1
720.213439941,5445.575
720.48260498,5457.4
720.75177002,5474.6
721.020996094,5470.325
721.290100098,5447.075
721.559204102,5452.825
721.828308105,5460.5
722.097351074,5435.75
722.366455078,5413.55
722.635437012,5396.325
722.904418945,5373.55
723.173400879,5401.7
723.442321777,5394.5
723.711181641,5399.525
723.980102539,5423.1
724.248962402,5388.65
724.51776123,5392.45
724.786560059,5382.8
725.055358887,5374.35
725.324035645,5379.725
725.592834473,5376.675
725.86151123,5359.325
726.130187988,5337.125
726.398803711,5317.425
726.667419434,5341.25
726.935974121,5316.3
727.204528809,5303.375
727.473083496,5311.125
727.741638184,5271.575
728.010070801,5265.925
728.278564453,5262.975
728.546936035,5261.925
728.815368652,5204.0
729.08380127,5160.1
729.352111816,5153.175
729.620361328,5111.425
729.88873291,5142.05
730.156982422,5150.3
730.425231934,5155.625
730.693481445,5163.65
730.961669922,5171.3
731.229797363,5191.525
731.49798584,5209.375
731.766113281,5230.725
732.034118652,5273.3
732.302246094,5295.6
732.570251465,5331.825
732.838256836,5321.275
733.106262207,5377.75
733.374145508,5384.475
733.642089844,5413.275
733.909973145,5437.7
734.177856445,5482.65
734.445678711,5532.55
734.713562012,5582.525
734.981323242,5587.225
735.249084473,5611.05
735.516845703,5728.625
735.784545898,5741.55
736.052185059,5762.575
736.319885254,5811.95
736.587524414,5843.15
736.855102539,5868.8
737.122619629,5951.45
737.390197754,5981.475
737.657714844,6035.875
737.925170898,6060.825
738.192749023,6125.275
738.460144043,6183.3
738.727539062,6205.675
738.994995117,6288.95
739.262329102,6315.05
739.529663086,6375.55
739.79699707,6410.25
740.06427002,6409.125
740.331481934,6462.375
740.598754883,6486.525
740.865905762,6494.425
741.133056641,6609.55
741.40032959,6609.85
741.667358398,6675.125
741.934448242,6658.975
742.201599121,6698.525
742.468566895,6775.9
742.735534668,6773.625
743.002563477,6790.7
743.26953125,6791.875
743.536437988,6849.175
743.803405762,6881.125
744.0703125,6881.45
744.337097168,6957.875
744.604003906,6890.35
744.870727539,6971.575
745.137512207,7010.6
745.40423584,7006.275
745.670959473,6977.9
745.93762207,6989.375
746.204284668,7001.125
746.470947266,7038.975
746.737548828,7018.15
747.004089355,7039.125
747.270751953,7079.625
747.53717041,7065.8
747.803710938,7037.525
748.070251465,7031.725
748.336608887,7041.325
748.603027344,7018.8
748.869445801,7017.625
749.135803223,7037.475
749.402099609,7057.9
749.668457031,7052.075
749.934753418,7030.475
750.20098877,7007.25
750.467224121,7024.425
750.733459473,6997.475
750.999572754,7020.375
751.26574707,6948.875
751.531860352,6986.325
751.797912598,6957.875
752.064025879,6916.0
752.330078125,6956.775
752.596069336,6944.125
752.862060547,6894.8
753.127990723,6921.35
753.393920898,6897.4
753.659912109,6875.75
753.925720215,6908.4
754.19152832,6884.825
754.457397461,6856.275
754.723144531,6842.15
754.988952637,6829.25
755.254699707,6830.85
755.520385742,6856.0
755.786071777,6847.9
756.051696777,6847.75
756.317382812,6836.65
756.582946777,6811.45
756.848510742,6824.625
757.114074707,6776.7
757.379577637,6763.6
757.645080566,6828.25
757.910583496,6797.375
758.175964355,6767.45
758.441345215,6759.05
758.706848145,6683.05
758.972106934,6693.175
759.237426758,6693.575
759.502807617,6733.45
759.768005371,6707.8
760.03326416,6689.875
760.298522949,6666.475
760.563659668,6693.55
760.828857422,6658.375
761.093994141,6679.475
761.359130859,6629.0
761.624206543,6640.6
761.889282227,6602.6
762.15423584,6638.65
762.419250488,6620.25
762.684265137,6601.375
762.949157715,6596.3
763.214050293,6591.45
763.479003906,6590.475
763.743835449,6602.425
764.008666992,6580.35
764.2734375,6543.45
764.538208008,6585.225
764.802978516,6632.825
765.067687988,6606.375
765.332397461,6614.2
765.597045898,6596.425
765.861694336,6569.35
766.126342773,6552.625
766.390930176,6554.95
766.655395508,6525.1
766.920043945,6528.6
767.184509277,6510.55
767.448974609,6523.875
767.713439941,6510.325
767.977783203,6481.35
768.2421875,6536.2
768.506591797,6509.525
768.770874023,6574.0
769.03515625,6535.7
769.299499512,6556.55
769.563720703,6544.625
769.827941895,6523.7
770.092163086,6514.825
770.356323242,6528.75
770.620483398,6536.125
770.88458252,6547.525
771.148681641,6559.975
771.412719727,6553.65
771.676757812,6577.425
771.940734863,6505.025
772.204711914,6533.375
772.468688965,6515.95
772.73260498,6530.525
772.996459961,6533.05
773.260314941,5806.375
773.524169922,776.325
773.787963867,140.6
774.051696777,121.675
774.315551758,121.35
774.579223633,121.05
774.842895508,120.2
775.106567383,124.025
775.370239258,117.975
775.633789062,122.7
775.897399902,125.375
776.160949707,119.125
776.424499512,120.975
776.687988281,122.9
776.951477051,123.725
777.214904785,120.475
777.47833252,120.55
