191.299911499,98.125
191.603515625,102.875
191.907119751,95.275
192.210693359,103.025
192.514251709,98.725
192.817810059,104.025
193.121368408,102.625
193.42489624,105.3
193.728408813,98.775
194.031936646,97.625
194.33543396,93.0
194.638916016,111.75
194.94241333,97.725
195.245880127,98.675
195.549331665,95.375
195.852767944,94.85
196.156204224,174.075
196.459625244,167.375
196.763015747,169.55
197.066436768,174.4
197.369812012,167.325
197.673187256,173.35
197.9765625,166.85
198.279922485,168.8
198.583251953,164.525
198.886581421,169.2
199.18989563,177.15
199.493209839,170.9
199.79649353,163.65
200.09979248,177.575
200.403076172,168.15
200.706314087,171.25
201.009567261,172.2
201.312820435,173.125
201.616027832,169.0
201.919235229,158.625
202.222457886,165.825
202.525634766,172.125
202.828826904,164.0
203.132003784,162.9
203.435150146,161.7
203.738296509,162.775
204.041412354,161.5
204.344558716,170.6
204.647659302,167.15
204.950759888,166.925
205.253845215,168.025
205.556930542,169.15
205.859985352,166.45
206.163024902,166.925
206.466079712,165.25
206.769104004,172.825
207.072113037,166.3
207.375137329,167.0
207.678131104,164.575
207.981109619,169.275
208.284088135,160.95
208.587036133,167.525
208.889984131,170.45
209.19291687,171.325
209.495849609,172.975
209.798751831,170.425
210.101654053,169.975
210.404556274,170.325
210.707427979,168.3
211.010269165,175.85
211.31312561,171.875
211.615982056,173.925
211.918807983,172.575
212.221618652,169.9
212.524429321,167.425
212.827224731,177.45
213.130004883,174.2
213.432769775,175.475
213.735534668,173.225
214.038269043,175.7
214.341003418,173.45
214.643737793,173.775
214.946456909,175.2
215.249145508,181.45
215.551834106,181.825
215.854507446,182.325
216.157165527,178.25
216.45980835,181.925
216.762451172,186.25
217.065078735,183.9
217.36769104,184.625
217.670303345,187.575
217.972885132,190.1
218.275466919,190.425
218.578048706,179.825
218.880599976,194.075
219.183120728,190.2
219.485656738,193.525
219.788192749,200.5
220.090682983,210.4
220.393188477,228.325
220.695663452,251.95
220.998138428,270.825
221.300582886,304.05
221.603042603,323.15
221.905487061,360.3
222.207901001,395.5
222.510299683,439.675
222.812728882,489.2
223.115097046,539.25
223.41746521,598.925
223.719848633,645.75
224.022171021,694.6
224.324508667,758.475
224.626846313,826.45
224.929168701,874.75
225.231460571,934.6
225.533737183,982.675
225.836013794,1050.175
226.138290405,1096.15
226.440536499,1134.075
226.742767334,1192.05
227.044998169,1239.5
227.347213745,1293.35
227.649429321,1326.125
227.951629639,1342.175
228.253799438,1388.55
228.555953979,1414.125
228.858123779,1441.1
229.160263062,1458.675
229.462371826,1493.35
229.764511108,1505.0
230.066619873,1514.0
230.36869812,1542.5
230.670776367,1566.8
230.972854614,1589.9
231.274902344,1606.25
231.576950073,1634.6
231.878967285,1634.725
232.180999756,1667.225
232.48298645,1682.425
232.784988403,1698.95
233.086975098,1714.3
233.388946533,1737.025
233.69090271,1756.25
233.992858887,1772.825
234.294769287,1765.175
234.596694946,1791.625
234.898605347,1807.7
235.200500488,1810.15
235.502380371,1812.875
235.804244995,1822.425
236.106109619,1795.775
236.407958984,1809.5
236.709777832,1821.125
237.011581421,1809.1
237.313400269,1795.45
237.615203857,1813.85
237.916976929,1802.85
238.21875,1798.65
238.520507812,1801.325
238.822250366,1801.125
239.12399292,1797.775
239.425704956,1816.225
239.727401733,1788.325
240.02911377,1792.65
240.330780029,1783.45
240.632446289,1781.175
240.93409729,1790.55
241.23576355,1794.625
241.537384033,1791.775
241.839004517,1785.625
242.140594482,1795.35
242.442199707,1821.025
242.743774414,1801.825
243.045333862,1806.575
243.346923828,1811.55
243.648452759,1824.375
243.949966431,1800.65
244.251495361,1825.725
244.552993774,1825.8
244.854492188,1822.5
245.155975342,1814.625
245.457443237,1828.325
245.758880615,1818.925
246.060333252,1819.65
246.36177063,1802.2
246.66317749,1795.325
246.964569092,1793.325
247.265945435,1809.9
247.567337036,1799.45
247.86869812,1807.825
248.170059204,1810.8
248.471389771,1812.475
248.772705078,1829.625
249.074035645,1831.8
249.375335693,1858.45
249.676620483,1868.325
249.977890015,1878.475
250.279159546,1916.7
250.58039856,1937.875
250.881637573,1948.075
251.182876587,1970.625
251.484069824,2009.4
251.785263062,2032.5
252.086456299,2107.125
252.387619019,2112.225
252.688781738,2149.125
252.989929199,2182.675
253.291061401,2222.95
253.592178345,2271.825
253.893280029,2306.6
254.194366455,2350.925
254.49546814,2369.4
254.796524048,2389.2
255.097579956,2438.975
255.398620605,2469.9
255.699645996,2517.9
256.000640869,2523.225
256.30166626,2564.3
256.602661133,2608.525
256.903656006,2613.15
257.204589844,2631.1
257.505523682,2642.9
257.80645752,2692.025
258.107391357,2712.725
258.408294678,2716.775
258.709228516,2733.7
259.010070801,2731.075
259.310943604,2761.325
259.611846924,2764.9
259.912658691,2757.075
260.213500977,2754.95
260.514343262,2777.625
260.815124512,2758.825
261.115936279,2779.725
261.416717529,2799.35
261.717468262,2781.8
262.018218994,2791.1
262.318969727,2808.4
262.619689941,2842.95
262.920410156,2892.8
263.221130371,2943.525
263.521789551,2958.025
263.822479248,3016.65
264.123138428,3058.925
264.42376709,3087.075
264.72442627,3103.075
265.025054932,3139.425
265.325622559,3164.825
265.626251221,3166.75
265.926818848,3196.6
266.227386475,3173.4
266.527954102,3184.9
266.828460693,3225.625
267.12902832,3159.175
267.429534912,3178.8
267.730010986,3161.225
268.030517578,3162.225
268.330993652,3172.875
268.631439209,3167.275
268.931915283,3174.85
269.232299805,3170.1
269.532745361,3182.1
269.8331604,3154.625
270.133544922,3176.275
270.433929443,3181.1
270.734313965,3189.55
271.034637451,3213.7
271.334991455,3224.075
271.635314941,3250.25
271.935638428,3271.55
272.235931396,3327.575
272.536254883,3367.025
272.836486816,3416.425
273.136749268,3484.3
273.437011719,3553.075
273.737213135,3609.725
274.037445068,3691.4
274.337677002,3762.15
274.6378479,3814.75
274.938049316,3935.775
275.238220215,3995.7
275.538360596,4099.075
275.838500977,4173.375
276.138641357,4266.875
276.438751221,4361.975
276.738830566,4406.825
277.03894043,4461.0
277.338989258,4587.075
277.639038086,4658.225
277.939056396,4705.625
278.239105225,4773.15
278.539093018,4852.85
278.839141846,4904.95
279.139129639,4974.625
279.439086914,5055.575
279.739044189,5101.375
280.039001465,5173.0
280.338928223,5255.55
280.63885498,5282.3
280.938781738,5328.575
281.238647461,5401.175
281.538513184,5449.475
281.838409424,5469.7
282.138244629,5533.525
282.438079834,5577.5
282.737945557,5616.725
283.037719727,5627.35
283.337524414,5697.85
283.637298584,5704.725
283.937072754,5765.2
284.236816406,5780.2
284.536560059,5792.525
284.836303711,5822.075
285.136016846,5895.225
285.43572998,5911.625
285.735412598,5914.575
286.035064697,5935.875
286.334747314,6017.625
286.634368896,5997.375
286.933990479,6004.175
287.233642578,5989.675
287.533203125,6017.625
287.832824707,5945.775
288.132385254,5921.125
288.431945801,5803.775
288.731506348,5747.25
289.031036377,5648.175
289.330566406,5559.475
289.630065918,5569.725
289.92956543,5559.1
290.229034424,5652.25
290.528503418,5778.4
290.827941895,5928.05
291.127380371,6054.8
291.42678833,6173.525
291.726226807,6279.525
292.025604248,6293.5
292.324981689,6347.5
292.624359131,6389.05
292.923736572,6398.35
293.223052979,6441.25
293.522369385,6436.65
293.821685791,6443.25
294.12097168,6420.3
294.420257568,6380.1
294.719543457,6378.4
295.018768311,6382.15
295.318023682,6340.575
295.617248535,6299.25
295.916442871,6277.9
296.215667725,6234.025
296.514862061,6109.975
296.813995361,5941.525
297.11315918,5817.125
297.412322998,5712.05
297.711425781,5694.55
298.010559082,5824.175
298.309631348,5996.725
298.608734131,6159.5
298.907806396,6347.825
299.206848145,6450.525
299.505889893,6531.8
299.804901123,6628.25
300.103912354,6684.05
300.402954102,6754.2
300.701904297,6822.85
301.00088501,6866.85
301.299835205,6945.8
301.5987854,6942.1
301.897735596,7062.225
302.196624756,7087.45
302.495513916,7161.5
302.794403076,7167.95
303.093292236,7227.175
303.392120361,7264.925
303.690979004,7357.55
303.989837646,7359.625
304.288604736,7434.725
304.587402344,7418.0
304.886199951,7475.625
305.184967041,7505.75
305.483734131,7552.3
305.782501221,7577.55
306.081176758,7600.45
306.37991333,7632.875
306.678619385,7619.925
306.977294922,7653.0
307.275970459,7641.95
307.574645996,7665.0
307.873260498,7672.0
308.171875,7687.95
308.470489502,7688.825
308.769104004,7611.0
309.067687988,7616.3
309.366241455,7614.625
309.664794922,7569.675
309.963348389,7579.225
310.261871338,7607.85
310.560394287,7591.0
310.858856201,7640.4
311.157348633,7660.5
311.455810547,7647.7
311.754272461,7676.625
312.052703857,7733.05
312.351135254,7758.125
312.649536133,7742.4
312.947937012,7726.475
313.246307373,7769.775
313.544647217,7786.9
313.843017578,7710.725
314.141387939,7719.175
314.439697266,7741.75
314.738006592,7653.95
315.036315918,7610.275
315.334564209,7550.05
315.6328125,7487.9
315.931091309,7439.65
316.229309082,7335.025
316.527526855,7239.725
316.825744629,7200.375
317.123901367,7115.125
317.422088623,7087.925
317.720245361,7067.45
318.0184021,7085.75
318.316497803,7124.725
318.614654541,7158.6
318.912750244,7229.025
319.21081543,7215.875
319.50894165,7249.275
319.806945801,7249.95
320.104980469,7243.9
320.403045654,7243.15
320.701049805,7216.15
320.999023438,7206.55
321.297027588,7184.175
321.595001221,7153.5
321.892913818,7112.2
322.190887451,7081.7
322.488830566,7020.925
322.786712646,6978.975
323.084625244,6910.725
323.382507324,6887.725
323.680358887,6824.5
323.978210449,6754.35
324.276062012,6703.875
324.573852539,6676.025
324.871643066,6627.15
325.169464111,6566.2
325.467224121,6508.325
325.764984131,6463.3
326.062744141,6405.025
326.360473633,6320.325
326.658203125,6301.875
326.955871582,6215.375
327.253570557,6171.1
327.551239014,6105.75
327.848907471,6099.125
328.146514893,6001.6
328.444152832,5947.25
328.741790771,5900.625
329.039367676,5842.175
329.336914062,5806.525
329.634521484,5752.975
329.932067871,5739.0
330.229553223,5637.675
330.527160645,5609.825
330.824615479,5574.05
331.12210083,5486.425
331.419586182,5386.45
331.717041016,5347.025
332.014465332,5290.2
332.311920166,5268.15
332.609313965,5222.225
332.906707764,5212.35
333.204101562,5185.725
333.501495361,5206.35
333.798828125,5265.325
334.096160889,5283.275
334.39352417,5333.2
334.690795898,5371.05
334.988098145,5408.35
335.285400391,5456.15
335.582641602,5448.625
335.879882812,5510.975
336.177124023,5517.85
336.474334717,5578.825
336.77154541,5565.5
337.068725586,5582.75
337.365905762,5592.1
337.66305542,5618.45
337.960205078,5620.575
338.257324219,5646.625
338.554443359,5634.475
338.8515625,5638.5
339.148590088,5647.45
339.445648193,5672.25
339.742736816,5645.425
340.039764404,5641.275
340.336761475,5599.125
340.63381958,5570.15
340.930755615,5523.7
341.227722168,5458.725
341.524688721,5402.075
341.821624756,5364.25
342.118560791,5382.625
342.415496826,5455.825
342.712402344,5578.95
343.009246826,5691.7
343.306121826,5774.575
343.602966309,5842.7
343.899810791,5929.425
344.196624756,5976.35
344.493438721,6004.475
344.79019165,6037.325
345.086975098,6085.775
345.383758545,6141.675
345.680480957,6109.525
345.977203369,6141.425
346.273956299,6166.925
346.570617676,6149.775
346.86730957,6186.725
347.163970947,6143.125
347.460601807,6200.575
347.757232666,6215.2
348.053894043,6200.375
348.350463867,6139.55
348.647064209,6127.8
348.943634033,6105.05
349.24017334,6124.6
349.536712646,6063.325
349.833251953,6081.75
350.129760742,6051.15
350.426208496,6056.175
350.722747803,6031.725
351.019195557,6020.525
351.315612793,5972.9
351.612060547,5946.875
351.908508301,5883.4
352.204864502,5856.95
352.501281738,5811.15
352.797637939,5744.95
353.093963623,5687.1
353.390319824,5640.6
353.686645508,5560.65
353.982940674,5500.3
354.27923584,5454.675
354.575531006,5435.15
354.871765137,5410.675
355.167999268,5397.6
355.464233398,5389.425
355.760437012,5390.95
356.056640625,5391.675
356.352813721,5395.1
356.648956299,5397.05
356.945129395,5422.5
357.241271973,5410.425
357.537384033,5425.775
357.833496094,5391.075
358.129577637,5385.95
358.425628662,5338.475
358.721679688,5328.2
359.017730713,5333.725
359.313720703,5285.4
359.609710693,5254.7
359.905761719,5201.0
360.201721191,5170.35
360.497650146,5121.2
360.793609619,5103.175
361.089538574,5034.1
361.385437012,4958.775
361.681365967,4912.525
361.977233887,4878.975
362.273071289,4831.975
362.568908691,4742.975
362.864746094,4664.775
363.160552979,4528.55
363.456359863,4369.075
363.752166748,4253.375
364.047912598,4182.375
364.343658447,4156.375
364.639434814,4189.275
364.935119629,4195.55
365.230834961,4269.175
365.526550293,4296.825
365.822174072,4315.775
366.117858887,4310.75
366.413482666,4344.925
366.709075928,4369.25
367.004730225,4305.15
367.300292969,4299.925
367.595855713,4338.2
367.891448975,4238.375
368.186981201,4140.6
368.482513428,4107.425
368.778015137,4091.4
369.073547363,4061.2
369.36895752,4092.5
369.664428711,3986.675
369.95993042,3904.25
370.255310059,3843.7
370.550720215,3826.625
370.846160889,3807.55
371.14151001,3759.7
371.436859131,3740.925
371.73223877,3747.65
372.027557373,3710.15
372.322875977,3655.175
372.618164062,3637.225
372.913482666,3596.45
373.208709717,3573.325
373.503967285,3530.65
373.799194336,3475.05
374.094421387,3491.9
374.389648438,3462.625
374.684844971,3455.675
374.979980469,3502.225
375.275146484,3501.525
375.570281982,3523.8
375.865386963,3528.325
376.160522461,3473.925
376.455596924,3495.05
376.750640869,3560.7
377.045715332,3573.1
377.340759277,3616.4
377.635772705,3660.5
377.93081665,3691.45
378.225769043,3753.65
378.520751953,3825.5
378.815734863,3758.1
379.110656738,3926.875
379.405548096,4067.7
379.700500488,3950.65
379.995391846,3746.375
380.290252686,3785.65
380.585083008,3872.475
380.879974365,3919.075
381.17477417,3840.125
381.469543457,3799.425
381.764404297,3771.1
382.059143066,3816.175
382.353912354,3894.7
382.648651123,3960.75
382.943389893,3949.1
383.238067627,3784.075
383.532775879,3781.125
383.827484131,3744.8
384.12210083,3754.95
384.416778564,3708.45
384.711425781,3603.7
385.006011963,3650.85
385.300628662,3639.0
385.595184326,3688.575
385.88973999,3779.95
386.184295654,3864.2
386.478820801,3932.55
386.77331543,4029.8
387.067840576,4125.125
387.362335205,4197.45
387.656768799,4271.925
387.951202393,4307.5
388.245635986,4357.775
388.540039062,4413.1
388.834472656,4488.025
389.128875732,4391.4
389.423187256,4196.475
389.717559814,4133.025
390.011871338,4257.675
390.306182861,4254.6
390.600463867,4291.825
390.894775391,4369.225
391.189025879,4399.0
391.48324585,4378.8
391.777526855,4406.95
392.071685791,4595.275
392.365875244,4693.35
392.660064697,4755.65
392.95425415,5059.075
393.248382568,5026.2
393.542510986,4610.875
393.836608887,4446.0
394.130706787,4481.875
394.424804688,4404.075
394.71887207,4520.625
395.012878418,4511.625
395.306915283,4404.975
395.600921631,4328.775
395.894927979,4308.075
396.188903809,4360.4
396.482879639,4366.075
396.776794434,4555.675
397.070739746,4507.4
397.364654541,4542.3
397.658538818,4877.65
397.952423096,4911.725
398.246307373,4872.075
398.540100098,5347.775
398.833953857,5231.4
399.127746582,4798.05
399.421508789,4811.1
399.715301514,4752.0
400.009063721,4682.925
400.30279541,4540.875
400.596496582,4466.425
400.890258789,4609.6
401.183929443,4691.275
401.47756958,4602.55
401.771240234,4370.3
402.064880371,4400.2
402.35848999,4439.15
402.652130127,4345.525
402.945678711,4413.75
403.239257812,4363.8
403.532775879,4291.1
403.82635498,4359.325
404.119842529,4278.475
404.413360596,4244.025
404.706848145,4321.125
405.000274658,4254.425
405.293762207,4333.625
405.587188721,4389.775
405.880584717,4225.425
406.17401123,4076.25
406.467407227,3897.775
406.760742188,3883.075
407.054107666,3938.475
407.347442627,3862.125
407.640716553,3856.35
407.934051514,3918.825
408.227325439,3965.35
408.520568848,4156.975
408.813842773,4240.8
409.107086182,4036.525
409.400238037,4009.5
409.693450928,3940.75
409.986633301,4059.375
410.279754639,3976.525
410.572875977,3719.175
410.86605835,3654.225
411.159118652,3667.4
411.452209473,3680.25
411.745330811,3551.3
412.038360596,3486.8
412.331390381,3509.65
412.624420166,3555.075
412.917388916,3470.45
413.210388184,3303.9
413.503387451,3267.025
413.796295166,3188.8
414.089233398,3023.925
414.382141113,2956.25
414.675048828,2951.225
414.967926025,2974.925
415.260803223,2919.175
415.55368042,2955.625
415.846466064,2912.475
416.139282227,2988.2
416.432098389,3093.5
416.724853516,3086.925
417.017608643,3040.975
417.31036377,3049.9
417.603088379,3157.825
417.895782471,3138.225
418.188476562,3116.425
418.481140137,3176.75
418.773803711,3208.9
419.066436768,3207.775
419.359039307,3284.0
419.651641846,3259.3
419.944244385,3273.1
420.236816406,3226.45
420.529327393,3425.275
420.821899414,3479.275
421.114379883,3425.525
421.406860352,3667.25
421.699371338,3866.575
421.991821289,3827.0
422.284240723,3606.8
422.576721191,3488.725
422.869110107,3394.875
423.161468506,3352.3
423.453857422,3377.575
423.74621582,3271.0
424.038543701,3142.85
424.330871582,3121.3
424.623168945,3072.875
424.915435791,3193.375
425.207702637,3162.825
425.499969482,3114.3
425.792205811,3059.55
426.084411621,2828.2
426.376617432,2902.275
426.668762207,2970.95
426.9609375,2860.425
427.253082275,2953.825
427.545196533,3339.525
427.837310791,3087.175
428.129425049,2825.25
428.421447754,3029.225
428.713531494,3023.1
429.005554199,3008.6
429.297576904,3017.425
429.589599609,3395.9
429.881561279,3685.65
430.173522949,3500.275
430.465484619,3453.85
430.757415771,3528.775
431.049316406,3300.325
431.341186523,3096.875
431.633117676,3011.025
431.924957275,2748.175
432.21673584,2653.675
432.508636475,2783.175
432.800415039,2802.375
433.092163086,2709.15
433.383972168,2684.625
433.675689697,3328.25
433.967437744,3741.125
434.259155273,2899.9
434.550872803,2612.875
434.842498779,2673.15
435.134185791,2791.275
435.425842285,2792.3
435.717437744,2720.75
436.009063721,2551.15
436.30065918,2676.75
436.592224121,2978.95
436.883758545,2812.2
437.175323486,2578.025
437.466827393,2546.2
437.758331299,2581.825
438.049804688,2578.7
438.341247559,2652.7
438.63269043,2719.6
438.924163818,2692.7
439.215515137,2661.65
439.50692749,2573.425
439.798309326,2577.9
440.089660645,2590.825
440.380981445,2520.225
440.672332764,2513.925
440.963623047,2747.525
441.254882812,3170.975
441.546173096,3312.325
441.837402344,3109.625
442.128631592,2920.35
442.41986084,2909.125
442.711029053,2792.9
443.002197266,2852.65
443.293365479,3021.45
443.584503174,3146.275
443.875610352,3107.25
444.166717529,2871.625
444.457794189,2928.925
444.748840332,2915.6
445.039916992,2864.275
445.330932617,2960.05
445.621948242,2814.9
445.912963867,2637.225
446.203918457,2846.05
446.494812012,3069.775
446.785827637,2866.0
447.076721191,2704.375
447.367584229,2698.75
447.658447266,2680.8
447.949371338,2714.85
448.24017334,2602.75
448.530975342,2534.625
448.821838379,2699.55
449.112579346,2773.475
449.40335083,2710.05
449.694152832,2731.725
449.984863281,2742.125
450.27557373,2687.95
450.56628418,2724.725
450.856933594,2742.55
451.147583008,2607.5
451.438262939,2522.2
451.728881836,2697.825
452.019470215,2759.7
452.310089111,2593.45
452.600646973,2604.95
452.891174316,2665.525
453.181732178,2510.275
453.472229004,2395.925
453.762695312,2491.475
454.053222656,2518.15
454.343658447,2387.075
454.634063721,2349.2
454.924530029,2492.775
455.214935303,2624.0
455.505279541,2685.825
455.795715332,2554.125
456.086029053,2373.525
456.376312256,2379.9
456.666687012,2393.35
456.956939697,2481.35
457.247192383,2495.725
457.537445068,2554.8
457.827728271,2714.275
458.117919922,2656.475
458.408081055,2602.8
458.698303223,2754.75
458.988433838,2675.075
459.278564453,2538.825
459.568725586,2780.375
459.858825684,2891.575
460.148864746,2593.55
460.438995361,2567.575
460.729034424,2617.85
461.019042969,2619.525
461.309082031,2805.025
461.599060059,2697.525
461.889007568,2284.125
462.179016113,2129.95
462.468933105,2337.225
462.75881958,2445.175
463.048736572,2198.675
463.338592529,2444.875
463.628448486,2769.625
463.918365479,2483.3
464.2081604,2641.575
464.497924805,2638.6
464.787780762,2730.2
465.077514648,2997.075
465.367218018,2662.45
465.657012939,2848.825
465.946685791,3217.375
466.236358643,2857.2
466.526092529,2379.675
466.815734863,2381.3
467.105316162,2312.675
467.394927979,2339.975
467.684570312,2219.25
467.974121094,2290.425
468.263671875,2389.85
468.553222656,2182.525
468.842773438,2097.1
469.132232666,2000.15
469.42175293,2023.875
469.711212158,2004.05
470.000640869,1890.4
470.290100098,1940.625
470.579498291,1973.25
470.868835449,1976.625
471.158294678,1944.8
471.447601318,1921.15
471.736907959,1983.25
472.026275635,2045.375
472.315551758,2027.8
472.604797363,2023.55
472.894104004,2130.5
473.183319092,2247.775
473.47253418,2225.325
473.761779785,2221.65
474.05090332,2150.75
474.340087891,2114.2
474.629241943,2048.925
474.918365479,2199.375
475.207427979,2452.575
475.496551514,2468.75
475.785614014,2243.05
476.074645996,2063.5
476.363708496,2139.45
476.652679443,2262.9
476.941650391,2096.25
477.230682373,1961.425
477.519622803,1970.325
477.808502197,2101.85
478.097412109,2329.775
478.386352539,2297.775
478.675201416,2057.2
478.964050293,1963.45
479.25289917,2135.625
479.541717529,2181.175
479.830474854,2035.725
480.11932373,2364.1
480.408050537,2508.125
480.696777344,2169.475
480.985534668,2045.175
481.274200439,2144.675
481.562866211,2355.975
481.851593018,2360.475
482.140197754,2313.725
482.428833008,2171.725
482.717468262,1988.95
483.006011963,2025.3
483.294586182,2135.45
483.5831604,2159.925
483.871673584,2037.275
484.16015625,2170.2
484.448699951,2382.9
484.7371521,2420.8
485.02557373,2414.5
485.314025879,2190.125
485.602416992,3382.75
485.890777588,12024.125
486.179199219,10709.625
486.467559814,2866.275
486.755859375,2077.1
487.044219971,2429.4
487.332519531,2600.325
487.620758057,2210.1
487.908966064,1997.95
488.197265625,1813.65
488.485473633,1737.05
488.773651123,1830.0
489.061859131,1826.775
489.350006104,1783.625
489.638122559,1723.425
489.926300049,1741.975
490.214355469,1708.125
490.502441406,1655.05
490.790527344,1595.725
491.078552246,1764.575
491.366546631,1749.25
491.654602051,1554.375
491.942565918,1616.5
492.230499268,1664.975
492.518493652,1629.0
492.806396484,1660.625
493.094268799,1580.525
493.382202148,1614.175
493.670074463,1711.25
493.957885742,1575.25
494.245727539,1571.8
494.533508301,1709.675
494.821289062,1616.05
495.109100342,1471.55
495.396850586,1439.925
495.684539795,1406.325
495.972290039,1586.225
496.25994873,1897.2
496.547607422,1892.5
496.835296631,1733.025
497.122894287,1452.15
497.410522461,1380.75
497.6980896,1385.45
497.985687256,1356.05
498.273223877,1439.075
498.560760498,1504.675
498.848266602,1521.375
499.135772705,1497.375
499.423217773,1526.8
499.710693359,1625.625
499.998138428,1562.525
500.285522461,1416.375
500.572937012,1350.775
500.860290527,1405.725
501.147644043,1491.45
501.434997559,1695.3
501.722290039,1569.35
502.00958252,1366.225
502.296875,1588.625
502.584106445,1567.975
502.871337891,1422.225
503.158599854,1486.8
503.445770264,1559.5
503.732910156,1545.1
504.020141602,1378.875
504.307220459,1351.5
504.594329834,1385.975
504.881469727,1332.625
505.168518066,1390.775
505.455535889,1460.35
505.742614746,1352.225
506.029632568,1280.35
506.316589355,1452.6
506.603637695,1519.475
506.890563965,1352.0
507.177459717,1212.2
507.464385986,1139.825
507.751312256,1334.775
508.038146973,1397.875
508.325012207,1281.075
508.611877441,1328.275
508.898681641,1344.925
509.185424805,1201.55
509.472259521,1170.925
509.759002686,1227.375
510.045715332,1267.275
510.332458496,1226.025
510.619140625,1271.95
510.905761719,1200.475
511.192504883,1191.45
511.479095459,1227.725
511.765686035,1177.075
512.052307129,1110.0
512.338928223,1075.175
512.625427246,1117.3
512.91204834,1167.3
513.198486328,1148.7
513.484985352,1116.65
513.77142334,1061.5
514.057922363,1099.075
514.344299316,1095.325
514.63079834,1056.5
514.917175293,1048.7
515.203552246,965.15
515.489868164,941.125
515.776245117,1042.75
516.0625,1080.1
516.348815918,1002.425
516.635070801,1032.25
516.921325684,1085.775
517.207580566,1030.95
517.493774414,942.325
517.779968262,961.675
518.066101074,989.2
518.352294922,947.75
518.638366699,949.2
518.924499512,1021.675
519.210632324,1084.2
519.496643066,1052.625
519.782714844,963.2
520.068786621,937.4
520.354736328,908.875
520.640686035,872.025
520.926757812,909.6
521.212646484,973.275
521.498535156,983.675
521.784484863,934.625
522.0703125,872.05
522.356262207,893.5
522.642089844,964.45
522.927856445,954.65
523.213684082,947.525
523.499511719,939.925
523.78527832,974.275
524.070983887,1019.85
524.356750488,1002.95
524.64239502,965.825
524.928039551,953.775
525.213806152,976.775
525.499389648,966.5
525.784973145,977.425
526.070617676,1020.725
526.356140137,998.25
526.641723633,1005.75
526.927307129,1057.075
527.212768555,1067.85
527.498291016,1046.0
527.783752441,1043.25
528.069213867,1022.225
528.354675293,1049.575
528.640014648,1189.125
528.925476074,1243.125
529.21081543,1175.55
529.496154785,1151.925
529.781555176,1128.775
530.066833496,1149.225
530.352050781,1155.475
530.637390137,1147.025
530.922607422,1143.45
531.207824707,1146.575
531.493041992,1134.925
531.778198242,1183.975
532.063354492,1177.45
532.348571777,1125.75
532.633666992,1148.1
532.918762207,1214.625
533.203857422,1286.55
533.488891602,1301.05
533.773925781,1253.55
534.059020996,1243.475
534.343933105,1254.975
534.628967285,1240.375
534.91394043,1256.725
535.198852539,1269.8
535.483703613,1237.075
535.768676758,1200.15
536.053527832,1211.5
536.338317871,1158.925
536.62322998,1118.35
536.90802002,1080.25
537.192810059,1101.275
537.477539062,1177.6
537.762329102,1210.4
538.047058105,1248.325
538.331726074,1271.125
538.616455078,1262.875
538.901123047,1240.825
539.18572998,1277.525
539.470397949,1284.25
539.755004883,1269.8
540.039550781,1235.675
540.32409668,1212.325
540.608703613,1244.325
540.893188477,1331.925
541.17767334,1334.7
541.462158203,1339.225
541.746643066,1304.0
542.031066895,1337.775
542.315429688,1373.9
542.59979248,1369.4
542.884216309,1354.2
543.168579102,1356.2
543.452941895,1353.45
543.737243652,1404.3
544.021484375,1444.1
544.305725098,1429.9
544.590026855,1407.275
544.874267578,1420.175
545.158447266,1473.45
545.442626953,1408.35
545.726806641,1314.675
546.010925293,1350.825
546.29510498,1376.35
546.579162598,1364.325
546.863220215,1398.425
547.147277832,1458.15
547.431335449,1528.525
547.715332031,1583.9
547.999328613,1684.375
548.283325195,1682.225
548.567260742,1553.775
548.851135254,1532.7
549.135070801,1514.125
549.419006348,1430.85
549.702819824,1509.25
549.986755371,1571.85
550.270507812,1548.5
550.554321289,1583.2
550.83807373,1595.125
551.121826172,1558.275
551.405517578,1578.4
551.689331055,1672.125
551.973022461,1853.85
552.256652832,1926.175
552.540344238,1851.05
552.823974609,1811.2
553.107543945,1798.75
553.391174316,1864.25
553.674743652,1900.75
553.958251953,1899.975
554.241821289,1915.925
554.525268555,1856.3
554.808776855,1849.825
555.092285156,2033.325
555.375671387,2104.2
555.659057617,2091.575
555.942504883,2108.7
556.225891113,2143.175
556.509216309,2111.95
556.792541504,2042.15
557.075866699,2082.475
557.359130859,2134.575
557.64239502,2128.4
557.92565918,2194.75
558.208862305,2170.225
558.49206543,2109.875
558.77532959,2138.325
559.058410645,2177.2
559.341552734,2157.175
559.624694824,2217.75
559.907775879,2270.1
560.190856934,2389.275
560.473937988,2369.925
560.756896973,2412.1
561.039978027,2437.15
561.322937012,2387.3
561.605895996,2392.2
561.88885498,2344.65
562.171813965,2365.425
562.454650879,2342.975
562.737548828,2381.875
563.020446777,2432.2
563.303283691,2454.05
563.58605957,2472.525
563.868896484,2489.3
564.151672363,2540.075
564.434387207,2557.95
564.717163086,2528.525
564.99987793,2563.525
565.282531738,2622.725
565.565185547,2572.4
565.847839355,2587.125
566.130432129,2678.0
566.413085938,2663.85
566.695678711,2671.775
566.978149414,2763.55
567.260681152,2891.225
567.543273926,2970.175
567.825744629,2870.2
568.108154297,2892.6
568.390686035,3006.275
568.673095703,3098.475
568.955505371,3158.075
569.237854004,3178.075
569.520202637,3393.075
569.802490234,3583.9
570.084838867,3567.0
570.367126465,3429.275
570.649414062,3446.325
570.93170166,3740.375
571.213928223,3800.95
571.496154785,3581.975
571.778381348,3779.075
572.06048584,4009.5
572.342590332,3612.825
572.624755859,3317.25
572.906860352,3372.95
573.188903809,3945.95
573.470947266,4167.975
573.752990723,3948.75
574.03503418,4034.2
574.317016602,4359.275
574.598937988,4185.55
574.88092041,4080.975
575.162841797,4247.325
575.444763184,3907.65
575.726623535,3693.95
576.008483887,3738.825
576.290344238,4073.775
576.572143555,4256.0
576.853881836,4302.625
577.135681152,4204.675
577.417419434,4280.625
577.699157715,5008.35
577.980895996,5167.75
578.262573242,4586.0
578.544128418,4184.85
578.825866699,4124.075
579.107421875,3872.1
579.388977051,4019.075
579.670593262,4352.425
579.952148438,4226.75
580.233642578,4297.65
580.515197754,4410.05
580.796691895,4148.8
581.078125,4271.975
581.359619141,5579.15
581.640991211,5668.6
581.922363281,4873.075
582.203796387,4939.0
582.485107422,4615.925
582.766418457,4280.1
583.047790527,4178.75
583.329040527,4059.35
583.610290527,3942.525
583.891540527,4043.175
584.172790527,4312.825
584.453918457,4329.175
584.735107422,4368.75
585.016235352,4756.625
585.297363281,4749.8
585.578552246,4567.975
585.859619141,4507.3
586.140625,4307.1
586.421630859,4194.575
586.702697754,4230.625
586.983642578,4436.8
587.264648438,4580.175
587.545654297,4522.65
587.826477051,4476.15
588.107421875,4312.65
588.388305664,4348.45
588.669189453,4435.775
588.950012207,4300.525
589.230834961,4219.65
589.511657715,4282.175
589.792358398,4383.675
590.073120117,4390.075
590.353881836,4375.725
590.63458252,4372.55
590.915283203,4337.375
591.195922852,4327.0
591.4765625,4402.125
591.757202148,4419.225
592.037780762,4404.825
592.31829834,4408.45
592.598937988,4621.95
592.879394531,4744.725
593.159912109,4676.15
593.440429688,4631.1
593.720825195,4586.675
594.001281738,4583.35
594.281677246,4505.875
594.562072754,4523.5
594.842407227,4626.925
595.122802734,4656.975
595.403137207,4636.0
595.683410645,4630.75
595.963623047,4604.45
596.243896484,4575.825
596.524169922,4572.5
596.804382324,4591.025
597.084533691,4605.75
597.364746094,4645.525
597.644836426,4690.925
597.924987793,4666.3
598.205078125,4643.225
598.485107422,4664.475
598.765197754,4738.925
599.045227051,4817.55
599.325195312,4723.0
599.605224609,4702.8
599.885192871,4756.55
600.165100098,4758.35
600.445007324,4734.925
600.724914551,4721.725
601.004760742,4764.625
601.284667969,4778.5
601.56451416,4732.95
601.844238281,4750.275
602.124084473,4764.075
602.403808594,4767.875
602.683532715,4816.95
602.963256836,4780.325
603.242919922,4841.525
603.522583008,4864.225
603.802246094,4844.6
604.081848145,4817.0
604.36138916,4805.7
604.641052246,4813.8
604.920532227,4803.275
605.200073242,4849.925
605.479614258,4872.075
605.759094238,4915.275
606.038574219,4913.5
606.317932129,4842.05
606.597412109,4850.175
606.87677002,4875.125
607.15612793,4895.275
607.435546875,4903.825
607.714782715,4911.275
607.99407959,4873.65
608.273376465,4859.925
608.552612305,4892.125
608.831848145,4900.575
609.111083984,4903.3
609.390258789,4878.4
609.669433594,4886.575
609.948608398,4932.075
610.227722168,4946.425
610.506713867,4883.525
610.785888672,4897.1
611.064880371,4893.475
611.34387207,4904.975
611.622924805,4932.925
611.901916504,4906.9
612.180847168,4884.775
612.459777832,4879.275
612.738647461,4893.0
613.01751709,4868.825
613.296447754,4820.825
613.575317383,4781.55
613.854064941,4738.25
614.132873535,4682.975
614.411621094,4605.0
614.690368652,4578.65
614.969177246,4550.775
615.247802734,4473.325
615.526489258,4487.675
615.805175781,4358.0
616.08380127,4263.075
616.362365723,4192.375
616.640991211,4142.1
616.919555664,4126.575
617.198059082,4196.75
617.4765625,4453.1
617.755126953,4598.975
618.033569336,4599.725
618.311950684,4629.35
618.590454102,4587.45
618.868774414,4612.2
619.147155762,4603.0
619.425598145,4594.25
619.703857422,4615.0
619.982177734,4621.175
620.260498047,4606.6
620.538757324,4598.5
620.816955566,4583.7
621.095214844,4524.05
621.373413086,4535.875
621.651550293,4600.825
621.929748535,4637.125
622.207824707,4623.65
622.485900879,4640.8
622.764038086,4627.15
623.042053223,4656.55
623.320007324,4691.275
623.598083496,4696.45
623.876037598,4653.75
624.153991699,4681.725
624.432006836,4707.1
624.709838867,4705.025
624.987731934,4692.525
625.265563965,4672.2
625.543395996,4704.05
625.821228027,4757.55
626.098999023,4752.325
626.376831055,4801.8
626.654541016,4818.5
626.932250977,4847.875
627.209960938,4876.75
627.487670898,4907.425
627.765319824,4913.775
628.04296875,4907.975
628.320495605,4928.675
628.598083496,4933.425
628.875671387,4976.575
629.153259277,4997.7
629.430725098,5024.075
629.708251953,5009.6
629.985656738,5047.4
630.263122559,5100.35
630.540588379,5072.25
630.817932129,5121.375
631.095275879,5145.25
631.372680664,5195.85
631.649963379,5220.125
631.927246094,5246.075
632.204589844,5266.625
632.481811523,5332.8
632.759033203,5424.7
633.036254883,5424.65
633.313415527,5512.85
633.590576172,5535.225
633.867736816,5631.25
634.144836426,5690.375
634.421875,5742.2
634.698913574,5790.3
634.976013184,5842.85
635.252990723,5898.575
635.529968262,5910.7
635.807006836,5987.375
636.08392334,5948.85
636.360839844,5889.125
636.637756348,5784.8
636.914611816,5757.525
637.191467285,5748.45
637.468261719,5805.15
637.745056152,5761.75
638.021789551,5799.775
638.298583984,5808.625
638.575317383,5848.425
638.851989746,5859.825
639.12878418,5854.175
639.405395508,5841.35
639.682006836,5870.175
639.958618164,5861.6
640.235229492,5843.875
640.511779785,5890.575
640.788330078,5853.75
641.064880371,5850.575
641.341308594,5826.625
641.617797852,5825.9
641.894226074,5833.425
642.170654297,5843.725
642.44708252,5831.375
642.723388672,5820.375
642.999755859,5823.275
643.276123047,5842.175
643.552429199,5807.7
643.828674316,5805.575
644.104919434,5788.325
644.381164551,5802.025
644.657348633,5799.425
644.933532715,5761.35
645.209716797,5754.5
645.485839844,5762.375
645.761901855,5756.05
646.038024902,5724.275
646.314086914,5751.425
646.590087891,5726.5
646.866149902,5772.65
647.142150879,5715.25
647.41809082,5678.55
647.694030762,5711.5
647.969970703,5682.05
648.245788574,5685.95
648.521728516,5700.275
648.797546387,5686.7
649.073303223,5700.6
649.349182129,5679.65
649.624938965,5664.075
649.900634766,5660.35
650.176391602,5667.15
650.452087402,5625.425
650.727783203,5605.85
651.003479004,5622.875
651.279052734,5607.425
651.554626465,5590.15
651.83026123,5582.8
652.105773926,5625.175
652.381286621,5555.75
652.656860352,5584.85
652.932312012,5581.825
653.207763672,5574.725
653.483215332,5609.15
653.758605957,5585.8
654.033935547,5547.8
654.309326172,5568.8
654.584716797,5602.175
654.859985352,5562.6
655.135253906,5603.55
655.410583496,5593.425
655.685791016,6431.025
655.9609375,10064.65
656.236206055,9827.5
656.511291504,6471.3
656.786437988,5701.9
657.061645508,5590.525
657.336669922,5560.7
657.611694336,5593.0
657.886779785,5594.925
658.161804199,5634.55
658.436828613,5589.55
658.711791992,5603.1
658.986755371,5606.25
659.261657715,5587.225
659.536621094,5578.25
659.811401367,5579.725
660.086303711,5611.375
660.36114502,5594.25
660.635864258,5578.825
660.910644531,5598.0
661.185424805,5584.65
661.460205078,5598.25
661.734863281,5597.325
662.009521484,5592.55
662.284179688,5609.525
662.558776855,5618.025
662.833435059,5622.4
663.108032227,5636.925
663.382568359,5618.95
663.657043457,5641.6
663.93157959,5661.05
664.206054688,5632.6
664.48046875,5677.8
664.755004883,5680.675
665.02935791,5674.35
665.303710938,5694.675
665.578125,5679.7
665.852416992,5701.825
666.126708984,5659.35
666.401062012,5687.85
666.675292969,5722.4
666.949462891,5695.825
667.223754883,5679.75
667.497924805,5699.625
667.772094727,5700.225
668.046264648,5675.3
668.3203125,5744.425
668.594421387,5731.05
668.868469238,5716.45
669.14251709,5724.4
669.416503906,5747.475
669.690551758,5715.45
669.964477539,5739.675
670.23840332,5736.8
670.512329102,5722.1
670.786254883,5683.775
671.060058594,5750.55
671.333984375,5750.175
671.607788086,5748.325
671.881530762,5752.325
672.155334473,5760.325
672.429077148,5755.45
672.702758789,5787.125
672.97644043,5753.925
673.25012207,5744.35
673.523742676,5735.725
673.797302246,5708.6
674.070922852,5760.25
674.344482422,5744.15
674.618041992,5712.275
674.891601562,5708.55
675.165100098,5749.575
675.438476562,5739.475
675.711975098,5730.8
675.985412598,5720.525
676.258789062,5690.475
676.532165527,5739.35
676.805480957,5729.2
677.078796387,5713.25
677.352111816,5709.525
677.625366211,5700.65
677.898620605,5678.525
678.171875,5717.3
678.445007324,5684.975
678.718200684,5727.6
678.991394043,5694.15
679.264404297,5700.05
679.537536621,5720.2
679.81060791,5700.725
680.083679199,5691.6
680.356689453,5696.275
680.629699707,5671.625
680.902648926,5675.65
681.175598145,5709.575
681.448547363,5722.4
681.721435547,5685.35
681.99420166,5675.5
682.267150879,5662.05
682.539916992,5702.35
682.812744141,5669.375
683.085510254,5627.575
683.358215332,5661.925
683.63092041,5640.55
683.903625488,5614.375
684.176330566,5598.175
684.448913574,5587.975
684.721557617,5573.975
684.99420166,5601.6
685.266662598,5597.675
685.539245605,5591.4
685.811767578,5601.675
686.084289551,5607.55
686.356689453,5615.775
686.629150391,5629.9
686.901550293,5628.3
687.17401123,5634.35
687.446350098,5624.825
687.718688965,5618.65
687.990966797,5627.525
688.263305664,5639.9
688.535522461,5603.4
688.807739258,5606.625
689.079956055,5634.325
689.352172852,5641.825
689.624328613,5633.375
689.896484375,5627.6
690.168518066,5639.2
690.440612793,5627.725
690.71270752,5611.25
690.984741211,5626.075
691.256713867,5620.45
691.528747559,5620.425
691.800720215,5594.125
692.072631836,5610.225
692.344543457,5640.175
692.616394043,5606.175
692.888244629,5625.7
693.160095215,5634.475
693.431945801,5653.575
693.703674316,5614.9
693.975463867,5578.625
694.247131348,5615.775
694.518859863,5599.85
694.790588379,5637.0
695.062255859,5602.575
695.33380127,5556.925
695.60546875,5572.15
695.87701416,5590.175
696.148498535,5587.375
696.42010498,5606.6
696.691589355,5601.75
696.96307373,5616.875
697.234558105,5635.975
697.50592041,5596.525
697.777282715,5575.7
698.048706055,5594.125
698.320068359,5613.2
698.591308594,5577.95
698.862670898,5573.025
699.133972168,5591.8
699.405151367,5571.55
699.676391602,5582.7
699.947570801,5554.0
700.21875,5556.5
700.489868164,5548.5
700.761047363,5561.425
701.032104492,5575.2
701.303100586,5498.525
701.57421875,5543.55
701.845214844,5542.15
702.116149902,5536.15
702.387207031,5538.95
702.65814209,5518.525
702.928955078,5543.95
703.199951172,5527.625
703.47076416,5472.425
703.741577148,5494.375
704.012451172,5509.7
704.28314209,5493.125
704.553955078,5492.15
704.824707031,5527.85
705.095397949,5547.4
705.366027832,5508.65
705.63671875,5505.675
705.907348633,5459.9
706.17791748,5482.6
706.448486328,5487.65
706.719055176,5483.375
706.989562988,5478.35
707.260131836,5489.025
707.530517578,5477.775
707.800964355,5490.05
708.071411133,5438.575
708.341796875,5440.25
708.612182617,5431.425
708.882446289,5393.35
709.152893066,5423.775
709.423156738,5421.05
709.693359375,5396.225
709.963623047,5393.425
710.233825684,5400.4
710.503967285,5380.425
710.774169922,5390.05
711.044311523,5370.225
711.31439209,5373.45
711.584533691,5375.675
711.854553223,5355.5
712.124572754,5358.6
712.39465332,5318.375
712.664611816,5350.775
712.934509277,5369.7
713.204467773,5339.275
713.474365234,5351.25
713.74420166,5327.75
714.014099121,5352.95
714.283874512,5333.375
714.553710938,5332.225
714.823486328,5332.925
715.093200684,5293.025
715.362915039,5337.175
715.632629395,5280.225
715.902282715,5271.7
716.171875,5270.2
716.441589355,5264.25
716.711181641,5252.375
716.980712891,5268.725
717.250244141,5227.925
717.519775391,5233.925
717.78918457,5225.375
718.058654785,5278.1
718.328125,5279.5
718.597473145,5244.875
718.866882324,5220.1
719.136230469,5235.9
719.405578613,5245.075
719.674865723,5247.9
719.944152832,5215.825
720.213439941,5198.475
720.48260498,5209.625
720.75177002,5208.725
721.020996094,5210.6
721.290100098,5194.45
721.559204102,5166.45
721.828308105,5201.425
722.097351074,5184.675
722.366455078,5176.225
722.635437012,5160.975
722.904418945,5145.375
723.173400879,5166.975
723.442321777,5150.2
723.711181641,5131.6
723.980102539,5148.525
724.248962402,5150.225
724.51776123,5128.4
724.786560059,5134.0
725.055358887,5117.4
725.324035645,5135.7
725.592834473,5098.55
725.86151123,5082.875
726.130187988,5078.25
726.398803711,5073.025
726.667419434,5085.7
726.935974121,5056.525
727.204528809,5017.925
727.473083496,5055.425
727.741638184,5025.775
728.010070801,5005.825
728.278564453,4987.075
728.546936035,4991.05
728.815368652,4947.5
729.08380127,4903.55
729.352111816,4895.275
729.620361328,4827.075
729.88873291,4880.45
730.156982422,4878.575
730.425231934,4913.9
730.693481445,4901.825
730.961669922,4921.625
731.229797363,4933.1
731.49798584,4954.8
731.766113281,4967.975
732.034118652,5004.25
732.302246094,5055.575
732.570251465,5060.375
732.838256836,5056.125
733.106262207,5106.85
733.374145508,5108.425
733.642089844,5141.35
733.909973145,5164.4
734.177856445,5214.15
734.445678711,5261.775
734.713562012,5297.325
734.981323242,5284.925
735.249084473,5328.675
735.516845703,5422.175
735.784545898,5450.15
736.052185059,5474.05
736.319885254,5504.075
736.587524414,5544.125
736.855102539,5563.45
737.122619629,5658.1
737.390197754,5642.175
737.657714844,5755.45
737.925170898,5766.35
738.192749023,5827.075
738.460144043,5851.55
738.727539062,5887.125
738.994995117,5946.075
739.262329102,5974.05
739.529663086,6070.725
739.79699707,6062.65
740.06427002,6111.925
740.331481934,6142.175
740.598754883,6169.975
740.865905762,6173.425
741.133056641,6268.45
741.40032959,6284.85
741.667358398,6340.275
741.934448242,6329.625
742.201599121,6375.15
742.468566895,6401.025
742.735534668,6455.8
743.002563477,6478.075
743.26953125,6471.15
743.536437988,6506.65
743.803405762,6575.45
744.0703125,6546.95
744.337097168,6617.05
744.604003906,6563.975
744.870727539,6607.65
745.137512207,6633.6
745.40423584,6662.15
745.670959473,6650.575
745.93762207,6662.475
746.204284668,6655.75
746.470947266,6690.225
746.737548828,6681.25
747.004089355,6704.525
747.270751953,6721.375
747.53717041,6728.5
747.803710938,6708.475
748.070251465,6700.2
748.336608887,6706.9
748.603027344,6677.825
748.869445801,6706.825
749.135803223,6697.275
749.402099609,6701.1
749.668457031,6712.575
749.934753418,6685.35
750.20098877,6672.35
750.467224121,6736.375
750.733459473,6694.15
750.999572754,6676.35
751.26574707,6641.775
751.531860352,6667.225
751.797912598,6660.375
752.064025879,6611.1
752.330078125,6658.6
752.596069336,6606.175
752.862060547,6607.725
753.127990723,6590.35
753.393920898,6589.75
753.659912109,6612.2
753.925720215,6616.075
754.19152832,6590.3
754.457397461,6542.1
754.723144531,6537.675
754.988952637,6525.375
755.254699707,6536.075
755.520385742,6565.6
755.786071777,6551.925
756.051696777,6567.8
756.317382812,6514.1
756.582946777,6517.25
756.848510742,6522.7
757.114074707,6501.1
757.379577637,6484.725
757.645080566,6521.125
757.910583496,6512.725
758.175964355,6470.875
758.441345215,6479.8
758.706848145,6414.875
758.972106934,6426.05
759.237426758,6450.475
759.502807617,6464.075
759.768005371,6457.275
760.03326416,6434.05
760.298522949,6389.55
760.563659668,6425.5
760.828857422,6410.075
761.093994141,6426.375
761.359130859,6417.625
761.624206543,6381.1
761.889282227,6385.475
762.15423584,6389.1
762.419250488,6378.575
762.684265137,6350.05
762.949157715,6327.0
763.214050293,6352.775
763.479003906,6326.625
763.743835449,6330.475
764.008666992,6297.7
764.2734375,6315.625
764.538208008,6332.85
764.802978516,6355.075
765.067687988,6362.275
765.332397461,6342.65
765.597045898,6338.975
765.861694336,6336.075
766.126342773,6341.275
766.390930176,6331.025
766.655395508,6325.375
766.920043945,6305.425
767.184509277,6281.625
767.448974609,6309.975
767.713439941,6296.15
767.977783203,6249.825
768.2421875,6297.725
768.506591797,6281.175
768.770874023,6342.3
769.03515625,6312.45
769.299499512,6313.325
769.563720703,6337.575
769.827941895,6290.525
770.092163086,6304.1
770.356323242,6288.975
770.620483398,6329.875
770.88458252,6325.6
771.148681641,6317.55
771.412719727,6344.2
771.676757812,6361.7
771.940734863,6311.725
772.204711914,6323.0
772.468688965,6303.35
772.73260498,6313.65
772.996459961,6333.55
773.260314941,5638.45
773.524169922,761.525
773.787963867,140.6
774.051696777,121.6
774.315551758,120.875
774.579223633,119.775
774.842895508,118.225
775.106567383,121.6
775.370239258,118.625
775.633789062,121.325
775.897399902,124.925
776.160949707,118.8
776.424499512,121.55
776.687988281,127.8
776.951477051,125.025
777.214904785,117.925
777.47833252,120.75
