191.299911499,99.55
191.603515625,102.525
191.907119751,96.9
192.210693359,105.1
192.514251709,99.3
192.817810059,101.275
193.121368408,102.825
193.42489624,103.65
193.728408813,98.875
194.031936646,102.425
194.33543396,93.45
194.638916016,110.975
194.94241333,98.275
195.245880127,95.375
195.549331665,93.675
195.852767944,97.5
196.156204224,184.575
196.459625244,180.225
196.763015747,178.775
197.066436768,189.075
197.369812012,181.8
197.673187256,182.275
197.9765625,179.7
198.279922485,180.75
198.583251953,177.225
198.886581421,183.55
199.18989563,190.375
199.493209839,184.425
199.79649353,174.075
200.09979248,186.2
200.403076172,184.55
200.706314087,182.65
201.009567261,183.5
201.312820435,183.4
201.616027832,173.0
201.919235229,170.225
202.222457886,176.7
202.525634766,182.275
202.828826904,169.9
203.132003784,170.0
203.435150146,177.675
203.738296509,173.95
204.041412354,174.425
204.344558716,177.4
204.647659302,177.025
204.950759888,181.75
205.253845215,179.05
205.556930542,175.95
205.859985352,177.025
206.163024902,175.1
206.466079712,181.025
206.769104004,193.625
207.072113037,181.425
207.375137329,182.225
207.678131104,178.95
207.981109619,181.6
208.284088135,175.25
208.587036133,181.225
208.889984131,181.55
209.19291687,183.275
209.495849609,183.375
209.798751831,185.55
210.101654053,181.4
210.404556274,185.15
210.707427979,184.025
211.010269165,193.875
211.31312561,188.475
211.615982056,188.075
211.918807983,189.05
212.221618652,190.975
212.524429321,184.725
212.827224731,194.1
213.130004883,188.875
213.432769775,190.9
213.735534668,195.025
214.038269043,198.5
214.341003418,197.875
214.643737793,203.625
214.946456909,198.425
215.249145508,204.175
215.551834106,208.2
215.854507446,204.475
216.157165527,203.2
216.45980835,206.65
216.762451172,209.825
217.065078735,208.725
217.36769104,214.775
217.670303345,213.225
217.972885132,219.475
218.275466919,221.35
218.578048706,216.375
218.880599976,232.15
219.183120728,225.6
219.485656738,237.55
219.788192749,250.85
220.090682983,269.875
220.393188477,294.375
220.695663452,333.525
220.998138428,366.575
221.300582886,421.5
221.603042603,459.275
221.905487061,510.2
222.207901001,583.625
222.510299683,653.45
222.812728882,733.275
223.115097046,820.75
223.41746521,913.75
223.719848633,1008.425
224.022171021,1089.525
224.324508667,1195.35
224.626846313,1309.4
224.929168701,1411.775
225.231460571,1527.1
225.533737183,1630.575
225.836013794,1748.15
226.138290405,1860.875
226.440536499,1952.05
226.742767334,2061.125
227.044998169,2141.075
227.347213745,2252.125
227.649429321,2334.6
227.951629639,2407.525
228.253799438,2503.45
228.555953979,2570.675
228.858123779,2655.725
229.160263062,2729.725
229.462371826,2813.675
229.764511108,2854.175
230.066619873,2925.0
230.36869812,2994.75
230.670776367,3059.325
230.972854614,3127.75
231.274902344,3204.875
231.576950073,3285.1
231.878967285,3353.1
232.180999756,3450.875
232.48298645,3514.575
232.784988403,3599.325
233.086975098,3652.575
233.388946533,3745.225
233.69090271,3830.7
233.992858887,3883.675
234.294769287,3929.975
234.596694946,4014.45
234.898605347,4099.325
235.200500488,4134.475
235.502380371,4187.9
235.804244995,4243.925
236.106109619,4263.35
236.407958984,4302.05
236.709777832,4342.925
237.011581421,4384.075
237.313400269,4401.45
237.615203857,4427.95
237.916976929,4482.175
238.21875,4509.275
238.520507812,4529.45
238.822250366,4577.95
239.12399292,4580.275
239.425704956,4620.225
239.727401733,4611.4
240.02911377,4684.8
240.330780029,4672.025
240.632446289,4706.0
240.93409729,4722.1
241.23576355,4752.25
241.537384033,4791.25
241.839004517,4822.5
242.140594482,4855.0
242.442199707,4900.45
242.743774414,4918.025
243.045333862,4942.25
243.346923828,4954.25
243.648452759,5000.625
243.949966431,5004.4
244.251495361,5041.925
244.552993774,5048.55
244.854492188,5019.675
245.155975342,5020.45
245.457443237,5032.025
245.758880615,5045.2
246.060333252,5037.175
246.36177063,5003.95
246.66317749,5009.525
246.964569092,4975.45
247.265945435,4969.5
247.567337036,4983.65
247.86869812,4998.625
248.170059204,4988.6
248.471389771,4961.2
248.772705078,5011.2
249.074035645,5008.25
249.375335693,5029.625
249.676620483,5076.8
249.977890015,5108.25
250.279159546,5168.05
250.58039856,5185.65
250.881637573,5198.475
251.182876587,5278.175
251.484069824,5327.725
251.785263062,5384.125
252.086456299,5433.925
252.387619019,5492.825
252.688781738,5552.475
252.989929199,5597.925
253.291061401,5664.125
253.592178345,5750.375
253.893280029,5795.4
254.194366455,5858.025
254.49546814,5905.975
254.796524048,5882.25
255.097579956,5969.2
255.398620605,5961.275
255.699645996,6042.9
256.000640869,6037.125
256.30166626,6062.7
256.602661133,6097.3
256.903656006,6070.625
257.204589844,6064.45
257.505523682,6043.625
257.80645752,6075.725
258.107391357,6032.525
258.408294678,6045.0
258.709228516,5966.25
259.010070801,5935.0
259.310943604,5936.15
259.611846924,5869.45
259.912658691,5820.35
260.213500977,5770.0
260.514343262,5731.675
260.815124512,5653.2
261.115936279,5631.8
261.416717529,5592.25
261.717468262,5560.925
262.018218994,5516.95
262.318969727,5499.95
262.619689941,5507.625
262.920410156,5534.625
263.221130371,5566.35
263.521789551,5572.85
263.822479248,5584.1
264.123138428,5648.075
264.42376709,5618.5
264.72442627,5644.025
265.025054932,5605.025
265.325622559,5619.525
265.626251221,5595.975
265.926818848,5548.15
266.227386475,5487.15
266.527954102,5458.7
266.828460693,5439.9
267.12902832,5355.025
267.429534912,5324.65
267.730010986,5250.45
268.030517578,5215.075
268.330993652,5167.125
268.631439209,5103.55
268.931915283,5095.9
269.232299805,5032.35
269.532745361,5006.675
269.8331604,4966.8
270.133544922,4947.275
270.433929443,4902.225
270.734313965,4886.625
271.034637451,4879.4
271.334991455,4858.375
271.635314941,4871.5
271.935638428,4848.475
272.235931396,4903.55
272.536254883,4924.075
272.836486816,4955.025
273.136749268,5007.675
273.437011719,5083.3
273.737213135,5136.975
274.037445068,5188.9
274.337677002,5281.0
274.6378479,5318.25
274.938049316,5449.625
275.238220215,5497.2
275.538360596,5596.625
275.838500977,5652.125
276.138641357,5777.825
276.438751221,5808.45
276.738830566,5861.175
277.03894043,5895.55
277.338989258,6000.875
277.639038086,6075.275
277.939056396,6101.2
278.239105225,6152.175
278.539093018,6209.025
278.839141846,6240.525
279.139129639,6291.575
279.439086914,6339.0
279.739044189,6386.325
280.039001465,6439.875
280.338928223,6447.55
280.63885498,6489.425
280.938781738,6522.55
281.238647461,6552.775
281.538513184,6550.875
281.838409424,6583.7
282.138244629,6585.025
282.438079834,6605.4
282.737945557,6616.875
283.037719727,6632.575
283.337524414,6646.95
283.637298584,6660.625
283.937072754,6654.475
284.236816406,6648.6
284.536560059,6632.55
284.836303711,6627.85
285.136016846,6686.35
285.43572998,6681.325
285.735412598,6670.0
286.035064697,6646.275
286.334747314,6685.1
286.634368896,6704.25
286.933990479,6627.3
287.233642578,6595.55
287.533203125,6589.125
287.832824707,6516.175
288.132385254,6432.75
288.431945801,6313.5
288.731506348,6216.7
289.031036377,6069.075
289.330566406,5977.375
289.630065918,5948.35
289.92956543,5925.55
290.229034424,6020.8
290.528503418,6168.7
290.827941895,6274.75
291.127380371,6389.575
291.42678833,6493.275
291.726226807,6585.45
292.025604248,6606.925
292.324981689,6643.85
292.624359131,6647.575
292.923736572,6646.125
293.223052979,6681.6
293.522369385,6667.175
293.821685791,6595.75
294.12097168,6588.625
294.420257568,6548.375
294.719543457,6563.75
295.018768311,6559.825
295.318023682,6478.075
295.617248535,6445.375
295.916442871,6393.875
296.215667725,6321.35
296.514862061,6219.125
296.813995361,6052.575
297.11315918,5873.45
297.412322998,5763.65
297.711425781,5749.375
298.010559082,5876.925
298.309631348,6051.15
298.608734131,6202.3
298.907806396,6372.425
299.206848145,6490.625
299.505889893,6534.95
299.804901123,6631.05
300.103912354,6673.25
300.402954102,6743.525
300.701904297,6772.975
301.00088501,6848.45
301.299835205,6905.95
301.5987854,6936.4
301.897735596,6981.25
302.196624756,7055.775
302.495513916,7114.15
302.794403076,7136.475
303.093292236,7171.85
303.392120361,7243.85
303.690979004,7306.0
303.989837646,7309.875
304.288604736,7370.6
304.587402344,7343.025
304.886199951,7403.0
305.184967041,7432.725
305.483734131,7506.6
305.782501221,7508.425
306.081176758,7517.2
306.37991333,7514.775
306.678619385,7531.625
306.977294922,7570.875
307.275970459,7574.575
307.574645996,7594.85
307.873260498,7576.975
308.171875,7588.125
308.470489502,7594.95
308.769104004,7534.325
309.067687988,7543.2
309.366241455,7522.825
309.664794922,7480.825
309.963348389,7506.5
310.261871338,7503.475
310.560394287,7499.175
310.858856201,7510.45
311.157348633,7549.325
311.455810547,7527.075
311.754272461,7569.425
312.052703857,7614.025
312.351135254,7637.175
312.649536133,7650.975
312.947937012,7650.475
313.246307373,7666.75
313.544647217,7662.375
313.843017578,7620.1
314.141387939,7596.125
314.439697266,7617.05
314.738006592,7540.7
315.036315918,7508.15
315.334564209,7447.25
315.6328125,7381.275
315.931091309,7318.975
316.229309082,7251.3
316.527526855,7147.8
316.825744629,7095.6
317.123901367,7007.7
317.422088623,6972.6
317.720245361,6987.85
318.0184021,6978.6
318.316497803,7033.375
318.614654541,7052.15
318.912750244,7107.6
319.21081543,7118.75
319.50894165,7151.65
319.806945801,7161.325
320.104980469,7136.45
320.403045654,7143.525
320.701049805,7124.075
320.999023438,7090.525
321.297027588,7083.1
321.595001221,7022.625
321.892913818,7014.5
322.190887451,6962.625
322.488830566,6916.475
322.786712646,6889.0
323.084625244,6827.275
323.382507324,6794.775
323.680358887,6707.45
323.978210449,6663.2
324.276062012,6620.4
324.573852539,6562.3
324.871643066,6513.375
325.169464111,6468.45
325.467224121,6402.15
325.764984131,6361.775
326.062744141,6309.25
326.360473633,6234.675
326.658203125,6184.2
326.955871582,6140.325
327.253570557,6061.05
327.551239014,6023.725
327.848907471,5986.825
328.146514893,5898.35
328.444152832,5863.575
328.741790771,5826.925
329.039367676,5775.9
329.336914062,5707.3
329.634521484,5666.3
329.932067871,5634.15
330.229553223,5573.75
330.527160645,5522.075
330.824615479,5487.775
331.12210083,5418.5
331.419586182,5325.075
331.717041016,5283.15
332.014465332,5208.35
332.311920166,5188.75
332.609313965,5137.7
332.906707764,5126.225
333.204101562,5109.975
333.501495361,5133.075
333.798828125,5193.775
334.096160889,5203.625
334.39352417,5242.05
334.690795898,5302.9
334.988098145,5317.25
335.285400391,5383.45
335.582641602,5380.15
335.879882812,5421.725
336.177124023,5424.925
336.474334717,5475.0
336.77154541,5487.9
337.068725586,5508.275
337.365905762,5493.675
337.66305542,5514.9
337.960205078,5563.15
338.257324219,5540.475
338.554443359,5554.65
338.8515625,5596.575
339.148590088,5572.3
339.445648193,5598.625
339.742736816,5548.175
340.039764404,5548.375
340.336761475,5523.1
340.63381958,5489.95
340.930755615,5434.325
341.227722168,5378.975
341.524688721,5313.975
341.821624756,5288.45
342.118560791,5303.3
342.415496826,5372.675
342.712402344,5481.025
343.009246826,5604.15
343.306121826,5710.225
343.602966309,5750.85
343.899810791,5839.925
344.196624756,5901.75
344.493438721,5915.625
344.79019165,5984.0
345.086975098,6003.4
345.383758545,6039.875
345.680480957,6028.775
345.977203369,6032.375
346.273956299,6093.35
346.570617676,6063.825
346.86730957,6089.575
347.163970947,6076.875
347.460601807,6120.5
347.757232666,6112.775
348.053894043,6085.925
348.350463867,6029.775
348.647064209,6027.675
348.943634033,6024.15
349.24017334,6036.525
349.536712646,5980.35
349.833251953,5975.75
350.129760742,5968.875
350.426208496,5968.425
350.722747803,5953.425
351.019195557,5950.025
351.315612793,5906.775
351.612060547,5870.85
351.908508301,5839.6
352.204864502,5759.525
352.501281738,5725.575
352.797637939,5692.675
353.093963623,5582.2
353.390319824,5537.55
353.686645508,5474.125
353.982940674,5411.175
354.27923584,5372.35
354.575531006,5346.75
354.871765137,5363.775
355.167999268,5306.15
355.464233398,5334.425
355.760437012,5326.3
356.056640625,5329.625
356.352813721,5332.7
356.648956299,5343.95
356.945129395,5369.175
357.241271973,5356.175
357.537384033,5364.5
357.833496094,5312.05
358.129577637,5297.375
358.425628662,5297.775
358.721679688,5271.3
359.017730713,5248.475
359.313720703,5195.075
359.609710693,5180.225
359.905761719,5123.575
360.201721191,5098.4
360.497650146,5047.975
360.793609619,5018.85
361.089538574,4982.875
361.385437012,4904.1
361.681365967,4865.7
361.977233887,4814.225
362.273071289,4771.525
362.568908691,4686.725
362.864746094,4577.675
363.160552979,4467.35
363.456359863,4323.9
363.752166748,4197.725
364.047912598,4134.4
364.343658447,4102.675
364.639434814,4132.15
364.935119629,4140.225
365.230834961,4219.75
365.526550293,4240.0
365.822174072,4239.4
366.117858887,4254.475
366.413482666,4307.8
366.709075928,4324.525
367.004730225,4238.65
367.300292969,4230.125
367.595855713,4283.025
367.891448975,4172.675
368.186981201,4095.65
368.482513428,4069.15
368.778015137,4055.525
369.073547363,4022.125
369.36895752,4030.45
369.664428711,3943.675
369.95993042,3845.875
370.255310059,3805.7
370.550720215,3784.6
370.846160889,3754.025
371.14151001,3726.375
371.436859131,3713.375
371.73223877,3694.025
372.027557373,3668.45
372.322875977,3613.175
372.618164062,3582.275
372.913482666,3551.15
373.208709717,3535.025
373.503967285,3469.825
373.799194336,3448.275
374.094421387,3456.1
374.389648438,3420.925
374.684844971,3411.725
374.979980469,3455.775
375.275146484,3465.9
375.570281982,3496.775
375.865386963,3481.15
376.160522461,3445.55
376.455596924,3448.5
376.750640869,3540.95
377.045715332,3542.275
377.340759277,3576.0
377.635772705,3626.225
377.93081665,3648.875
378.225769043,3710.85
378.520751953,3762.325
378.815734863,3718.1
379.110656738,3860.75
379.405548096,4013.7
379.700500488,3882.5
379.995391846,3707.65
380.290252686,3740.475
380.585083008,3837.325
380.879974365,3881.85
381.17477417,3786.8
381.469543457,3747.925
381.764404297,3734.425
382.059143066,3759.45
382.353912354,3815.275
382.648651123,3929.6
382.943389893,3906.325
383.238067627,3747.4
383.532775879,3742.775
383.827484131,3692.5
384.12210083,3710.325
384.416778564,3656.4
384.711425781,3572.15
385.006011963,3592.45
385.300628662,3577.375
385.595184326,3654.1
385.88973999,3746.125
386.184295654,3818.95
386.478820801,3887.7
386.77331543,3976.475
387.067840576,4070.125
387.362335205,4151.5
387.656768799,4219.125
387.951202393,4243.05
388.245635986,4299.275
388.540039062,4343.65
388.834472656,4420.65
389.128875732,4330.175
389.423187256,4141.225
389.717559814,4091.775
390.011871338,4198.525
390.306182861,4227.025
390.600463867,4252.175
390.894775391,4283.825
391.189025879,4312.6
391.48324585,4305.425
391.777526855,4358.025
392.071685791,4538.1
392.365875244,4620.025
392.660064697,4683.825
392.95425415,4974.8
393.248382568,4974.2
393.542510986,4551.175
393.836608887,4402.5
394.130706787,4384.8
394.424804688,4339.875
394.71887207,4445.875
395.012878418,4429.675
395.306915283,4353.6
395.600921631,4274.55
395.894927979,4244.725
396.188903809,4301.925
396.482879639,4314.35
396.776794434,4474.4
397.070739746,4450.9
397.364654541,4489.05
397.658538818,4831.375
397.952423096,4843.7
398.246307373,4815.35
398.540100098,5273.25
398.833953857,5160.7
399.127746582,4732.75
399.421508789,4750.5
399.715301514,4693.875
400.009063721,4608.65
400.30279541,4483.85
400.596496582,4389.85
400.890258789,4557.45
401.183929443,4613.125
401.47756958,4516.625
401.771240234,4330.425
402.064880371,4331.975
402.35848999,4361.65
402.652130127,4296.325
402.945678711,4324.3
403.239257812,4291.775
403.532775879,4264.625
403.82635498,4278.8
404.119842529,4218.675
404.413360596,4210.95
404.706848145,4242.95
405.000274658,4205.225
405.293762207,4274.25
405.587188721,4320.75
405.880584717,4171.05
406.17401123,4026.925
406.467407227,3823.6
406.760742188,3846.3
407.054107666,3876.125
407.347442627,3813.25
407.640716553,3788.425
407.934051514,3844.225
408.227325439,3898.775
408.520568848,4093.6
408.813842773,4179.475
409.107086182,4008.15
409.400238037,3945.525
409.693450928,3893.425
409.986633301,4002.65
410.279754639,3915.25
410.572875977,3659.15
410.86605835,3609.225
411.159118652,3630.4
411.452209473,3622.1
411.745330811,3511.25
412.038360596,3445.85
412.331390381,3469.125
412.624420166,3510.475
412.917388916,3435.8
413.210388184,3281.9
413.503387451,3227.55
413.796295166,3160.8
414.089233398,2991.625
414.382141113,2922.0
414.675048828,2891.675
414.967926025,2937.125
415.260803223,2904.5
415.55368042,2926.675
415.846466064,2893.875
416.139282227,2934.6
416.432098389,3059.75
416.724853516,3040.825
417.017608643,3002.625
417.31036377,3011.325
417.603088379,3124.2
417.895782471,3093.15
418.188476562,3075.775
418.481140137,3141.1
418.773803711,3191.525
419.066436768,3156.775
419.359039307,3218.35
419.651641846,3225.575
419.944244385,3220.325
420.236816406,3185.2
420.529327393,3387.375
420.821899414,3445.15
421.114379883,3400.075
421.406860352,3617.0
421.699371338,3795.0
421.991821289,3769.45
422.284240723,3581.45
422.576721191,3447.85
422.869110107,3352.225
423.161468506,3304.95
423.453857422,3332.575
423.74621582,3247.825
424.038543701,3114.025
424.330871582,3080.325
424.623168945,3021.65
424.915435791,3153.35
425.207702637,3100.975
425.499969482,3072.4
425.792205811,3023.3
426.084411621,2791.05
426.376617432,2860.45
426.668762207,2921.55
426.9609375,2834.6
427.253082275,2934.875
427.545196533,3280.175
427.837310791,3042.475
428.129425049,2785.1
428.421447754,2987.625
428.713531494,2982.85
429.005554199,2954.15
429.297576904,2982.725
429.589599609,3358.65
429.881561279,3637.425
430.173522949,3443.5
430.465484619,3411.475
430.757415771,3471.7
431.049316406,3258.425
431.341186523,3059.625
431.633117676,2967.95
431.924957275,2696.3
432.21673584,2618.85
432.508636475,2735.625
432.800415039,2753.2
433.092163086,2661.3
433.383972168,2649.05
433.675689697,3267.875
433.967437744,3693.575
434.259155273,2856.375
434.550872803,2596.275
434.842498779,2628.55
435.134185791,2754.125
435.425842285,2759.75
435.717437744,2677.85
436.009063721,2514.25
436.30065918,2645.575
436.592224121,2952.425
436.883758545,2776.075
437.175323486,2545.725
437.466827393,2519.675
437.758331299,2521.95
438.049804688,2557.15
438.341247559,2607.225
438.63269043,2684.625
438.924163818,2662.425
439.215515137,2637.25
439.50692749,2542.55
439.798309326,2546.775
440.089660645,2567.775
440.380981445,2477.875
440.672332764,2475.825
440.963623047,2700.05
441.254882812,3103.225
441.546173096,3278.1
441.837402344,3058.675
442.128631592,2876.35
442.41986084,2862.725
442.711029053,2756.425
443.002197266,2816.425
443.293365479,2975.925
443.584503174,3099.55
443.875610352,3066.3
444.166717529,2837.875
444.457794189,2884.675
444.748840332,2866.65
445.039916992,2830.075
445.330932617,2921.275
445.621948242,2766.575
445.912963867,2609.225
446.203918457,2817.2
446.494812012,3009.875
446.785827637,2834.675
447.076721191,2682.25
447.367584229,2658.825
447.658447266,2622.15
447.949371338,2671.725
448.24017334,2576.675
448.530975342,2498.825
448.821838379,2659.525
449.112579346,2720.6
449.40335083,2675.725
449.694152832,2695.3
449.984863281,2701.975
450.27557373,2633.375
450.56628418,2695.75
450.856933594,2713.275
451.147583008,2577.15
451.438262939,2471.55
451.728881836,2664.95
452.019470215,2734.775
452.310089111,2560.95
452.600646973,2588.375
452.891174316,2641.9
453.181732178,2466.65
453.472229004,2367.05
453.762695312,2452.95
454.053222656,2480.675
454.343658447,2377.525
454.634063721,2312.45
454.924530029,2466.475
455.214935303,2595.2
455.505279541,2645.825
455.795715332,2518.3
456.086029053,2352.275
456.376312256,2334.225
456.666687012,2363.5
456.956939697,2449.45
457.247192383,2462.8
457.537445068,2506.675
457.827728271,2692.05
458.117919922,2629.075
458.408081055,2565.925
458.698303223,2703.95
458.988433838,2658.875
459.278564453,2499.175
459.568725586,2747.9
459.858825684,2856.075
460.148864746,2565.95
460.438995361,2549.225
460.729034424,2592.475
461.019042969,2604.6
461.309082031,2783.6
461.599060059,2667.925
461.889007568,2271.475
462.179016113,2096.725
462.468933105,2309.725
462.75881958,2408.75
463.048736572,2188.9
463.338592529,2407.925
463.628448486,2717.875
463.918365479,2474.125
464.2081604,2627.3
464.497924805,2592.325
464.787780762,2713.45
465.077514648,2959.15
465.367218018,2630.65
465.657012939,2818.5
465.946685791,3185.5
466.236358643,2823.45
466.526092529,2351.175
466.815734863,2359.575
467.105316162,2283.65
467.394927979,2306.65
467.684570312,2196.375
467.974121094,2263.8
468.263671875,2362.875
468.553222656,2166.075
468.842773438,2077.1
469.132232666,1976.275
469.42175293,2015.125
469.711212158,1983.65
470.000640869,1860.125
470.290100098,1917.125
470.579498291,1958.025
470.868835449,1957.3
471.158294678,1922.025
471.447601318,1899.65
471.736907959,1957.075
472.026275635,2021.05
472.315551758,2007.85
472.604797363,1999.05
472.894104004,2126.925
473.183319092,2220.275
473.47253418,2201.6
473.761779785,2197.425
474.05090332,2135.65
474.340087891,2093.75
474.629241943,2041.925
474.918365479,2184.0
475.207427979,2440.6
475.496551514,2455.4
475.785614014,2209.25
476.074645996,2027.6
476.363708496,2120.45
476.652679443,2236.6
476.941650391,2082.575
477.230682373,1949.875
477.519622803,1948.95
477.808502197,2081.275
478.097412109,2321.775
478.386352539,2286.725
478.675201416,2044.9
478.964050293,1946.475
479.25289917,2104.125
479.541717529,2166.425
479.830474854,2017.75
480.11932373,2332.1
480.408050537,2500.425
480.696777344,2145.8
480.985534668,2036.3
481.274200439,2106.0
481.562866211,2332.75
481.851593018,2352.125
482.140197754,2291.1
482.428833008,2159.2
482.717468262,1981.25
483.006011963,2001.3
483.294586182,2107.175
483.5831604,2153.325
483.871673584,2026.15
484.16015625,2147.95
484.448699951,2366.4
484.7371521,2396.825
485.02557373,2412.175
485.314025879,2147.4
485.602416992,3357.3
485.890777588,11936.025
486.179199219,10662.425
486.467559814,2846.575
486.755859375,2078.05
487.044219971,2410.65
487.332519531,2577.0
487.620758057,2199.125
487.908966064,1979.45
488.197265625,1795.925
488.485473633,1707.05
488.773651123,1807.95
489.061859131,1814.275
489.350006104,1761.65
489.638122559,1706.325
489.926300049,1729.175
490.214355469,1680.1
490.502441406,1642.075
490.790527344,1578.325
491.078552246,1753.925
491.366546631,1746.025
491.654602051,1533.1
491.942565918,1611.725
492.230499268,1649.3
492.518493652,1613.625
492.806396484,1642.225
493.094268799,1551.075
493.382202148,1594.225
493.670074463,1708.725
493.957885742,1566.475
494.245727539,1559.65
494.533508301,1700.725
494.821289062,1612.825
495.109100342,1475.9
495.396850586,1432.5
495.684539795,1390.35
495.972290039,1580.975
496.25994873,1879.5
496.547607422,1880.05
496.835296631,1734.4
497.122894287,1436.2
497.410522461,1369.275
497.6980896,1376.7
497.985687256,1339.725
498.273223877,1434.8
498.560760498,1490.375
498.848266602,1512.475
499.135772705,1483.0
499.423217773,1522.125
499.710693359,1616.2
499.998138428,1565.75
500.285522461,1417.4
500.572937012,1343.575
500.860290527,1394.4
501.147644043,1473.75
501.434997559,1682.3
501.722290039,1553.975
502.00958252,1356.525
502.296875,1589.725
502.584106445,1571.0
502.871337891,1420.05
503.158599854,1486.375
503.445770264,1547.05
503.732910156,1533.475
504.020141602,1372.5
504.307220459,1347.425
504.594329834,1376.175
504.881469727,1332.125
505.168518066,1386.55
505.455535889,1445.75
505.742614746,1339.85
506.029632568,1278.325
506.316589355,1451.15
506.603637695,1512.425
506.890563965,1359.525
507.177459717,1208.6
507.464385986,1134.45
507.751312256,1328.625
508.038146973,1403.725
508.325012207,1270.125
508.611877441,1329.625
508.898681641,1335.975
509.185424805,1197.875
509.472259521,1161.1
509.759002686,1230.3
510.045715332,1259.825
510.332458496,1218.625
510.619140625,1263.325
510.905761719,1189.9
511.192504883,1181.825
511.479095459,1222.825
511.765686035,1188.775
512.052307129,1114.325
512.338928223,1056.425
512.625427246,1109.3
512.91204834,1160.575
513.198486328,1134.9
513.484985352,1115.85
513.77142334,1050.025
514.057922363,1095.75
514.344299316,1093.275
514.63079834,1050.775
514.917175293,1044.75
515.203552246,956.95
515.489868164,943.0
515.776245117,1046.825
516.0625,1084.525
516.348815918,1000.25
516.635070801,1029.725
516.921325684,1071.625
517.207580566,1025.225
517.493774414,945.25
517.779968262,964.1
518.066101074,990.775
518.352294922,948.7
518.638366699,957.8
518.924499512,1020.575
519.210632324,1087.15
519.496643066,1059.075
519.782714844,968.7
520.068786621,949.55
520.354736328,905.15
520.640686035,865.975
520.926757812,909.9
521.212646484,978.1
521.498535156,977.425
521.784484863,942.825
522.0703125,877.325
522.356262207,901.925
522.642089844,957.65
522.927856445,949.1
523.213684082,946.15
523.499511719,939.925
523.78527832,977.175
524.070983887,1022.775
524.356750488,998.9
524.64239502,967.1
524.928039551,958.85
525.213806152,977.55
525.499389648,970.55
525.784973145,990.775
526.070617676,1027.825
526.356140137,996.15
526.641723633,1002.775
526.927307129,1060.775
527.212768555,1068.6
527.498291016,1037.95
527.783752441,1049.15
528.069213867,1027.725
528.354675293,1046.125
528.640014648,1190.7
528.925476074,1252.475
529.21081543,1186.425
529.496154785,1157.475
529.781555176,1132.425
530.066833496,1144.025
530.352050781,1166.625
530.637390137,1163.075
530.922607422,1155.625
531.207824707,1157.325
531.493041992,1141.3
531.778198242,1201.55
532.063354492,1179.575
532.348571777,1135.025
532.633666992,1146.8
532.918762207,1217.4
533.203857422,1298.6
533.488891602,1323.2
533.773925781,1271.625
534.059020996,1242.375
534.343933105,1270.575
534.628967285,1249.325
534.91394043,1268.55
535.198852539,1286.35
535.483703613,1258.8
535.768676758,1205.675
536.053527832,1212.3
536.338317871,1179.4
536.62322998,1123.4
536.90802002,1096.75
537.192810059,1131.85
537.477539062,1184.75
537.762329102,1222.725
538.047058105,1261.575
538.331726074,1290.3
538.616455078,1266.675
538.901123047,1253.1
539.18572998,1297.325
539.470397949,1304.625
539.755004883,1290.65
540.039550781,1262.575
540.32409668,1217.925
540.608703613,1267.625
540.893188477,1346.05
541.17767334,1363.625
541.462158203,1358.825
541.746643066,1310.475
542.031066895,1347.025
542.315429688,1385.3
542.59979248,1386.45
542.884216309,1372.875
543.168579102,1370.25
543.452941895,1374.9
543.737243652,1423.6
544.021484375,1466.375
544.305725098,1463.725
544.590026855,1433.15
544.874267578,1453.2
545.158447266,1511.675
545.442626953,1430.875
545.726806641,1343.6
546.010925293,1375.15
546.29510498,1405.85
546.579162598,1403.85
546.863220215,1416.875
547.147277832,1492.325
547.431335449,1561.8
547.715332031,1622.0
547.999328613,1712.125
548.283325195,1719.75
548.567260742,1593.025
548.851135254,1559.525
549.135070801,1541.85
549.419006348,1454.5
549.702819824,1556.4
549.986755371,1610.775
550.270507812,1582.975
550.554321289,1616.975
550.83807373,1627.75
551.121826172,1586.225
551.405517578,1603.85
551.689331055,1711.025
551.973022461,1909.45
552.256652832,1965.425
552.540344238,1880.175
552.823974609,1862.05
553.107543945,1848.775
553.391174316,1904.275
553.674743652,1947.0
553.958251953,1960.475
554.241821289,1965.65
554.525268555,1914.05
554.808776855,1901.675
555.092285156,2077.65
555.375671387,2164.8
555.659057617,2141.375
555.942504883,2184.675
556.225891113,2211.475
556.509216309,2177.925
556.792541504,2090.975
557.075866699,2157.275
557.359130859,2191.45
557.64239502,2182.325
557.92565918,2274.525
558.208862305,2253.825
558.49206543,2192.825
558.77532959,2213.5
559.058410645,2237.35
559.341552734,2227.55
559.624694824,2289.65
559.907775879,2347.4
560.190856934,2461.9
560.473937988,2455.125
560.756896973,2491.55
561.039978027,2513.8
561.322937012,2472.25
561.605895996,2469.6
561.88885498,2436.9
562.171813965,2436.825
562.454650879,2449.625
562.737548828,2465.85
563.020446777,2532.0
563.303283691,2550.2
563.58605957,2585.225
563.868896484,2588.55
564.151672363,2640.1
564.434387207,2669.675
564.717163086,2640.3
564.99987793,2679.125
565.282531738,2733.375
565.565185547,2658.425
565.847839355,2694.0
566.130432129,2799.4
566.413085938,2775.15
566.695678711,2783.525
566.978149414,2904.05
567.260681152,3028.5
567.543273926,3083.325
567.825744629,2998.7
568.108154297,3027.35
568.390686035,3148.775
568.673095703,3255.425
568.955505371,3299.5
569.237854004,3319.125
569.520202637,3589.375
569.802490234,3769.925
570.084838867,3744.95
570.367126465,3607.6
570.649414062,3613.65
570.93170166,3926.25
571.213928223,3997.875
571.496154785,3780.25
571.778381348,3976.125
572.06048584,4191.725
572.342590332,3795.725
572.624755859,3497.275
572.906860352,3538.625
573.188903809,4157.9
573.470947266,4389.3
573.752990723,4163.7
574.03503418,4265.05
574.317016602,4625.75
574.598937988,4426.7
574.88092041,4309.225
575.162841797,4467.8
575.444763184,4134.35
575.726623535,3911.35
576.008483887,3939.975
576.290344238,4288.525
576.572143555,4477.675
576.853881836,4546.925
577.135681152,4461.35
577.417419434,4497.675
577.699157715,5296.25
577.980895996,5444.075
578.262573242,4860.1
578.544128418,4412.275
578.825866699,4359.3
579.107421875,4091.7
579.388977051,4250.025
579.670593262,4622.175
579.952148438,4463.875
580.233642578,4565.6
580.515197754,4672.6
580.796691895,4381.4
581.078125,4570.025
581.359619141,5928.05
581.640991211,6009.05
581.922363281,5179.325
582.203796387,5243.525
582.485107422,4899.675
582.766418457,4554.925
583.047790527,4399.55
583.329040527,4311.875
583.610290527,4187.25
583.891540527,4282.825
584.172790527,4564.325
584.453918457,4583.225
584.735107422,4626.075
585.016235352,5060.125
585.297363281,5021.1
585.578552246,4853.1
585.859619141,4780.175
586.140625,4573.325
586.421630859,4444.775
586.702697754,4486.225
586.983642578,4704.175
587.264648438,4867.575
587.545654297,4789.35
587.826477051,4743.35
588.107421875,4589.05
588.388305664,4611.275
588.669189453,4696.375
588.950012207,4584.95
589.230834961,4483.125
589.511657715,4556.85
589.792358398,4641.775
590.073120117,4639.925
590.353881836,4632.1
590.63458252,4644.775
590.915283203,4624.45
591.195922852,4597.6
591.4765625,4651.425
591.757202148,4673.725
592.037780762,4682.25
592.31829834,4679.575
592.598937988,4871.875
592.879394531,5029.55
593.159912109,4962.3
593.440429688,4895.35
593.720825195,4873.725
594.001281738,4860.375
594.281677246,4787.775
594.562072754,4801.875
594.842407227,4891.325
595.122802734,4923.45
595.403137207,4917.85
595.683410645,4862.125
595.963623047,4866.425
596.243896484,4838.95
596.524169922,4857.1
596.804382324,4853.65
597.084533691,4901.275
597.364746094,4921.35
597.644836426,4920.8
597.924987793,4917.775
598.205078125,4880.85
598.485107422,4907.55
598.765197754,5044.55
599.045227051,5091.3
599.325195312,5014.925
599.605224609,4967.825
599.885192871,5009.425
600.165100098,5045.725
600.445007324,5006.575
600.724914551,4995.35
601.004760742,5015.35
601.284667969,5020.175
601.56451416,5001.425
601.844238281,4999.75
602.124084473,5021.375
602.403808594,5024.65
602.683532715,5060.175
602.963256836,5030.575
603.242919922,5107.575
603.522583008,5110.25
603.802246094,5093.1
604.081848145,5076.5
604.36138916,5064.1
604.641052246,5094.0
604.920532227,5064.825
605.200073242,5084.1
605.479614258,5130.075
605.759094238,5148.725
606.038574219,5161.375
606.317932129,5085.0
606.597412109,5081.75
606.87677002,5115.675
607.15612793,5146.825
607.435546875,5146.1
607.714782715,5164.925
607.99407959,5105.25
608.273376465,5128.7
608.552612305,5161.375
608.831848145,5155.475
609.111083984,5143.3
609.390258789,5135.675
609.669433594,5131.575
609.948608398,5179.625
610.227722168,5184.775
610.506713867,5113.4
610.785888672,5146.25
611.064880371,5140.275
611.34387207,5158.2
611.622924805,5143.175
611.901916504,5147.0
612.180847168,5115.275
612.459777832,5124.225
612.738647461,5114.175
613.01751709,5111.85
613.296447754,5045.325
613.575317383,5029.25
613.854064941,4978.6
614.132873535,4901.025
614.411621094,4866.35
614.690368652,4825.6
614.969177246,4768.275
615.247802734,4692.8
615.526489258,4687.45
615.805175781,4591.15
616.08380127,4474.325
616.362365723,4393.75
616.640991211,4354.275
616.919555664,4302.325
617.198059082,4421.05
617.4765625,4678.3
617.755126953,4791.875
618.033569336,4827.375
618.311950684,4838.375
618.590454102,4817.05
618.868774414,4808.525
619.147155762,4815.825
619.425598145,4803.65
619.703857422,4817.225
619.982177734,4826.0
620.260498047,4823.55
620.538757324,4796.95
620.816955566,4778.95
621.095214844,4726.1
621.373413086,4736.85
621.651550293,4817.45
621.929748535,4850.225
622.207824707,4828.625
622.485900879,4846.95
622.764038086,4840.775
623.042053223,4866.95
623.320007324,4896.5
623.598083496,4897.075
623.876037598,4872.8
624.153991699,4893.825
624.432006836,4898.825
624.709838867,4933.575
624.987731934,4914.15
625.265563965,4918.5
625.543395996,4915.9
625.821228027,4983.75
626.098999023,4983.025
626.376831055,5021.3
626.654541016,5044.125
626.932250977,5063.65
627.209960938,5121.5
627.487670898,5132.0
627.765319824,5148.3
628.04296875,5153.325
628.320495605,5157.675
628.598083496,5150.65
628.875671387,5182.5
629.153259277,5207.775
629.430725098,5293.95
629.708251953,5267.55
629.985656738,5288.5
630.263122559,5337.825
630.540588379,5337.3
630.817932129,5379.675
631.095275879,5405.625
631.372680664,5443.325
631.649963379,5471.625
631.927246094,5534.6
632.204589844,5542.625
632.481811523,5639.35
632.759033203,5704.575
633.036254883,5699.825
633.313415527,5789.0
633.590576172,5832.275
633.867736816,5932.95
634.144836426,5996.775
634.421875,6014.375
634.698913574,6092.4
634.976013184,6142.125
635.252990723,6200.6
635.529968262,6223.0
635.807006836,6301.45
636.08392334,6293.175
636.360839844,6208.875
636.637756348,6115.05
636.914611816,6097.975
637.191467285,6070.45
637.468261719,6144.175
637.745056152,6114.5
638.021789551,6114.875
638.298583984,6155.85
638.575317383,6199.925
638.851989746,6185.475
639.12878418,6198.4
639.405395508,6167.8
639.682006836,6220.6
639.958618164,6223.225
640.235229492,6195.725
640.511779785,6263.9
640.788330078,6237.9
641.064880371,6232.6
641.341308594,6192.125
641.617797852,6204.35
641.894226074,6213.575
642.170654297,6241.475
642.44708252,6233.625
642.723388672,6231.45
642.999755859,6231.1
643.276123047,6240.175
643.552429199,6222.225
643.828674316,6204.725
644.104919434,6188.725
644.381164551,6202.125
644.657348633,6209.875
644.933532715,6153.6
645.209716797,6191.55
645.485839844,6176.325
645.761901855,6186.125
646.038024902,6159.875
646.314086914,6202.675
646.590087891,6172.1
646.866149902,6207.025
647.142150879,6165.975
647.41809082,6131.075
647.694030762,6139.5
647.969970703,6154.175
648.245788574,6162.6
648.521728516,6144.925
648.797546387,6144.125
649.073303223,6172.125
649.349182129,6133.5
649.624938965,6126.875
649.900634766,6125.375
650.176391602,6118.8
650.452087402,6101.75
650.727783203,6131.25
651.003479004,6126.825
651.279052734,6121.525
651.554626465,6113.35
651.83026123,6079.875
652.105773926,6120.175
652.381286621,6062.3
652.656860352,6069.325
652.932312012,6096.1
653.207763672,6088.25
653.483215332,6118.625
653.758605957,6111.075
654.033935547,6101.7
654.309326172,6115.325
654.584716797,6146.125
654.859985352,6126.1
655.135253906,6141.075
655.410583496,6167.375
655.685791016,7098.3
655.9609375,11088.05
656.236206055,10848.85
656.511291504,7178.675
656.786437988,6298.875
657.061645508,6178.425
657.336669922,6163.125
657.611694336,6192.85
657.886779785,6199.25
658.161804199,6243.45
658.436828613,6191.65
658.711791992,6208.1
658.986755371,6232.325
659.261657715,6233.2
659.536621094,6229.4
659.811401367,6253.875
660.086303711,6265.6
660.36114502,6247.6
660.635864258,6251.45
660.910644531,6281.15
661.185424805,6302.8
661.460205078,6311.25
661.734863281,6292.6
662.009521484,6301.075
662.284179688,6300.825
662.558776855,6336.275
662.833435059,6375.275
663.108032227,6365.825
663.382568359,6365.0
663.657043457,6407.025
663.93157959,6411.775
664.206054688,6399.325
664.48046875,6444.05
664.755004883,6446.1
665.02935791,6463.925
665.303710938,6480.2
665.578125,6480.0
665.852416992,6509.55
666.126708984,6497.2
666.401062012,6494.2
666.675292969,6550.575
666.949462891,6524.3
667.223754883,6513.6
667.497924805,6521.4
667.772094727,6577.2
668.046264648,6538.925
668.3203125,6588.875
668.594421387,6627.725
668.868469238,6635.4
669.14251709,6627.05
669.416503906,6636.325
669.690551758,6628.8
669.964477539,6633.35
670.23840332,6643.175
670.512329102,6662.975
670.786254883,6636.325
671.060058594,6677.85
671.333984375,6696.45
671.607788086,6732.1
671.881530762,6693.675
672.155334473,6741.5
672.429077148,6752.2
672.702758789,6746.225
672.97644043,6741.75
673.25012207,6742.65
673.523742676,6741.825
673.797302246,6721.6
674.070922852,6803.575
674.344482422,6786.125
674.618041992,6774.375
674.891601562,6776.075
675.165100098,6814.025
675.438476562,6774.3
675.711975098,6800.05
675.985412598,6775.65
676.258789062,6788.45
676.532165527,6821.625
676.805480957,6806.225
677.078796387,6816.925
677.352111816,6849.175
677.625366211,6828.925
677.898620605,6818.375
678.171875,6859.5
678.445007324,6853.15
678.718200684,6889.8
678.991394043,6866.05
679.264404297,6844.4
679.537536621,6886.9
679.81060791,6878.1
680.083679199,6882.975
680.356689453,6885.45
680.629699707,6868.125
680.902648926,6865.3
681.175598145,6900.95
681.448547363,6935.375
681.721435547,6866.075
681.99420166,6886.175
682.267150879,6877.45
682.539916992,6936.525
682.812744141,6889.325
683.085510254,6861.925
683.358215332,6887.9
683.63092041,6852.45
683.903625488,6865.85
684.176330566,6861.425
684.448913574,6849.375
684.721557617,6846.575
684.99420166,6939.75
685.266662598,6852.1
685.539245605,6901.2
685.811767578,6919.9
686.084289551,6906.525
686.356689453,6923.1
686.629150391,6932.775
686.901550293,6976.375
687.17401123,6966.9
687.446350098,6999.0
687.718688965,6978.325
687.990966797,7006.275
688.263305664,7019.625
688.535522461,6988.2
688.807739258,6982.65
689.079956055,7000.625
689.352172852,7056.825
689.624328613,6998.925
689.896484375,7036.225
690.168518066,7013.425
690.440612793,7047.625
690.71270752,7028.525
690.984741211,7042.125
691.256713867,7068.525
691.528747559,7048.075
691.800720215,7072.25
692.072631836,7083.975
692.344543457,7077.5
692.616394043,7090.325
692.888244629,7099.1
693.160095215,7097.65
693.431945801,7124.425
693.703674316,7082.7
693.975463867,7069.825
694.247131348,7116.125
694.518859863,7107.875
694.790588379,7132.625
695.062255859,7124.65
695.33380127,7069.275
695.60546875,7088.475
695.87701416,7082.05
696.148498535,7091.4
696.42010498,7136.4
696.691589355,7131.95
696.96307373,7124.6
697.234558105,7151.45
697.50592041,7159.65
697.777282715,7155.625
698.048706055,7148.05
698.320068359,7166.775
698.591308594,7133.825
698.862670898,7119.575
699.133972168,7195.2
699.405151367,7129.4
699.676391602,7165.9
699.947570801,7156.875
700.21875,7159.4
700.489868164,7155.275
700.761047363,7173.1
701.032104492,7173.625
701.303100586,7103.95
701.57421875,7166.15
701.845214844,7168.95
702.116149902,7164.225
702.387207031,7128.125
702.65814209,7133.7
702.928955078,7151.15
703.199951172,7124.1
703.47076416,7088.7
703.741577148,7088.875
704.012451172,7133.25
704.28314209,7135.725
704.553955078,7088.25
704.824707031,7137.125
705.095397949,7127.975
705.366027832,7155.375
705.63671875,7125.675
705.907348633,7106.975
706.17791748,7100.65
706.448486328,7118.075
706.719055176,7112.675
706.989562988,7107.075
707.260131836,7123.975
707.530517578,7117.4
707.800964355,7103.025
708.071411133,7050.325
708.341796875,7046.675
708.612182617,7034.25
708.882446289,7019.425
709.152893066,7057.275
709.423156738,7041.7
709.693359375,6984.125
709.963623047,7017.4
710.233825684,7038.825
710.503967285,6988.875
710.774169922,7005.825
711.044311523,6985.35
711.31439209,6989.975
711.584533691,6978.3
711.854553223,6957.0
712.124572754,6964.625
712.39465332,6913.95
712.664611816,6939.75
712.934509277,6952.375
713.204467773,6930.8
713.474365234,6921.075
713.74420166,6883.85
714.014099121,6895.3
714.283874512,6853.775
714.553710938,6876.725
714.823486328,6863.75
715.093200684,6853.2
715.362915039,6870.75
715.632629395,6837.35
715.902282715,6826.975
716.171875,6779.675
716.441589355,6797.55
716.711181641,6759.475
716.980712891,6776.225
717.250244141,6754.15
717.519775391,6749.725
717.78918457,6742.95
718.058654785,6748.8
718.328125,6763.4
718.597473145,6720.5
718.866882324,6719.65
719.136230469,6661.55
719.405578613,6710.025
719.674865723,6687.575
719.944152832,6650.1
720.213439941,6634.2
720.48260498,6637.425
720.75177002,6647.6
721.020996094,6645.225
721.290100098,6631.875
721.559204102,6592.8
721.828308105,6597.925
722.097351074,6598.925
722.366455078,6576.8
722.635437012,6550.5
722.904418945,6495.9
723.173400879,6514.3
723.442321777,6527.7
723.711181641,6476.675
723.980102539,6505.3
724.248962402,6470.875
724.51776123,6455.5
724.786560059,6465.85
725.055358887,6444.35
725.324035645,6406.075
725.592834473,6403.375
725.86151123,6373.45
726.130187988,6391.025
726.398803711,6339.55
726.667419434,6361.2
726.935974121,6335.575
727.204528809,6285.15
727.473083496,6254.65
727.741638184,6225.6
728.010070801,6200.95
728.278564453,6202.9
728.546936035,6192.175
728.815368652,6115.025
729.08380127,6044.3
729.352111816,6008.95
729.620361328,5964.325
729.88873291,5958.9
730.156982422,6000.675
730.425231934,5997.225
730.693481445,5986.05
730.961669922,5993.975
731.229797363,6001.125
731.49798584,6014.025
731.766113281,6010.3
732.034118652,6058.9
732.302246094,6080.375
732.570251465,6096.85
732.838256836,6098.1
733.106262207,6145.85
733.374145508,6132.95
733.642089844,6185.975
733.909973145,6168.6
734.177856445,6220.45
734.445678711,6247.675
734.713562012,6305.875
734.981323242,6292.9
735.249084473,6316.975
735.516845703,6423.7
735.784545898,6452.5
736.052185059,6458.025
736.319885254,6510.25
736.587524414,6522.35
736.855102539,6546.75
737.122619629,6605.15
737.390197754,6617.325
737.657714844,6674.975
737.925170898,6703.275
738.192749023,6785.8
738.460144043,6775.65
738.727539062,6801.7
738.994995117,6859.225
739.262329102,6888.65
739.529663086,6948.425
739.79699707,6954.6
740.06427002,6966.05
740.331481934,7007.55
740.598754883,7021.375
740.865905762,7011.4
741.133056641,7123.55
741.40032959,7108.375
741.667358398,7131.05
741.934448242,7138.65
742.201599121,7130.05
742.468566895,7196.6
742.735534668,7204.075
743.002563477,7223.3
743.26953125,7169.875
743.536437988,7205.325
743.803405762,7255.275
744.0703125,7224.625
744.337097168,7262.225
744.604003906,7200.825
744.870727539,7233.325
745.137512207,7261.2
745.40423584,7225.725
745.670959473,7206.325
745.93762207,7191.6
746.204284668,7210.475
746.470947266,7211.875
746.737548828,7135.4
747.004089355,7169.95
747.270751953,7146.85
747.53717041,7150.3
747.803710938,7104.3
748.070251465,7087.525
748.336608887,7062.65
748.603027344,6998.025
748.869445801,7002.7
749.135803223,6981.425
749.402099609,6982.85
749.668457031,6951.075
749.934753418,6910.8
750.20098877,6893.95
750.467224121,6892.35
750.733459473,6848.85
750.999572754,6833.775
751.26574707,6748.75
751.531860352,6773.35
751.797912598,6727.9
752.064025879,6690.05
752.330078125,6657.25
752.596069336,6637.15
752.862060547,6581.175
753.127990723,6584.275
753.393920898,6558.1
753.659912109,6542.55
753.925720215,6517.525
754.19152832,6485.05
754.457397461,6432.325
754.723144531,6380.525
754.988952637,6356.025
755.254699707,6362.225
755.520385742,6328.325
755.786071777,6328.275
756.051696777,6295.7
756.317382812,6232.275
756.582946777,6214.7
756.848510742,6223.625
757.114074707,6169.25
757.379577637,6142.75
757.645080566,6165.275
757.910583496,6133.3
758.175964355,6070.0
758.441345215,6041.85
758.706848145,5970.725
758.972106934,5938.725
759.237426758,5939.05
759.502807617,5951.925
759.768005371,5943.55
760.03326416,5888.9
760.298522949,5835.625
760.563659668,5826.5
760.828857422,5803.525
761.093994141,5776.65
761.359130859,5748.0
761.624206543,5714.35
761.889282227,5668.175
762.15423584,5652.55
762.419250488,5639.825
762.684265137,5602.575
762.949157715,5588.575
763.214050293,5566.15
763.479003906,5555.75
763.743835449,5537.75
764.008666992,5484.3
764.2734375,5484.675
764.538208008,5480.175
764.802978516,5499.475
765.067687988,5436.8
765.332397461,5439.35
765.597045898,5405.525
765.861694336,5362.15
766.126342773,5342.35
766.390930176,5319.85
766.655395508,5294.375
766.920043945,5260.875
767.184509277,5263.35
767.448974609,5245.275
767.713439941,5207.775
767.977783203,5171.6
768.2421875,5187.525
768.506591797,5158.05
768.770874023,5180.425
769.03515625,5143.175
769.299499512,5130.275
769.563720703,5109.075
769.827941895,5074.4
770.092163086,5064.575
770.356323242,5051.525
770.620483398,5040.075
770.88458252,5031.925
771.148681641,5017.475
771.412719727,4993.7
771.676757812,4983.05
771.940734863,4941.3
772.204711914,4927.925
772.468688965,4899.475
772.73260498,4897.675
772.996459961,4890.1
773.260314941,4343.2
773.524169922,607.6
773.787963867,134.9
774.051696777,120.4
774.315551758,119.475
774.579223633,119.825
774.842895508,121.2
775.106567383,120.025
775.370239258,117.1
775.633789062,122.425
775.897399902,123.9
776.160949707,118.9
776.424499512,120.325
776.687988281,123.1
776.951477051,125.3
777.214904785,119.575
777.47833252,122.675
