191.299911499,98.2
191.603515625,100.95
191.907119751,95.925
192.210693359,103.275
192.514251709,95.925
192.817810059,102.725
193.121368408,101.675
193.42489624,104.275
193.728408813,97.675
194.031936646,102.325
194.33543396,93.375
194.638916016,110.275
194.94241333,96.0
195.245880127,96.825
195.549331665,95.5
195.852767944,99.3
196.156204224,183.925
196.459625244,177.325
196.763015747,177.4
197.066436768,184.45
197.369812012,179.3
197.673187256,179.9
197.9765625,174.925
198.279922485,176.125
198.583251953,173.85
198.886581421,176.175
199.18989563,182.225
199.493209839,180.7
199.79649353,171.45
200.09979248,182.05
200.403076172,176.9
200.706314087,182.95
201.009567261,181.4
201.312820435,181.35
201.616027832,171.475
201.919235229,170.9
202.222457886,174.625
202.525634766,172.85
202.828826904,169.1
203.132003784,167.225
203.435150146,172.75
203.738296509,172.425
204.041412354,170.175
204.344558716,178.3
204.647659302,175.025
204.950759888,177.075
205.253845215,172.85
205.556930542,168.55
205.859985352,173.2
206.163024902,171.45
206.466079712,172.475
206.769104004,182.625
207.072113037,173.05
207.375137329,172.2
207.678131104,176.95
207.981109619,179.2
208.284088135,174.075
208.587036133,178.1
208.889984131,175.525
209.19291687,179.825
209.495849609,179.4
209.798751831,180.7
210.101654053,180.4
210.404556274,179.775
210.707427979,176.85
211.010269165,190.35
211.31312561,183.3
211.615982056,180.7
211.918807983,183.75
212.221618652,183.825
212.524429321,178.425
212.827224731,190.05
213.130004883,183.725
213.432769775,187.375
213.735534668,186.4
214.038269043,192.575
214.341003418,188.075
214.643737793,196.05
214.946456909,194.275
215.249145508,198.55
215.551834106,202.775
215.854507446,200.8
216.157165527,196.55
216.45980835,201.525
216.762451172,204.375
217.065078735,208.075
217.36769104,200.55
217.670303345,209.05
217.972885132,216.375
218.275466919,220.95
218.578048706,214.25
218.880599976,232.775
219.183120728,242.425
219.485656738,257.65
219.788192749,290.6
220.090682983,324.25
220.393188477,360.05
220.695663452,422.3
220.998138428,473.25
221.300582886,548.95
221.603042603,606.95
221.905487061,697.225
222.207901001,780.725
222.510299683,867.675
222.812728882,975.15
223.115097046,1070.15
223.41746521,1185.725
223.719848633,1293.825
224.022171021,1387.175
224.324508667,1504.975
224.626846313,1622.05
224.929168701,1724.15
225.231460571,1838.15
225.533737183,1954.0
225.836013794,2064.425
226.138290405,2164.15
226.440536499,2245.475
226.742767334,2322.525
227.044998169,2415.25
227.347213745,2503.45
227.649429321,2585.15
227.951629639,2619.95
228.253799438,2671.15
228.555953979,2746.925
228.858123779,2781.625
229.160263062,2818.625
229.462371826,2857.525
229.764511108,2867.975
230.066619873,2896.95
230.36869812,2925.825
230.670776367,2949.125
230.972854614,2985.25
231.274902344,2997.575
231.576950073,3050.975
231.878967285,3046.275
232.180999756,3085.4
232.48298645,3096.475
232.784988403,3120.8
233.086975098,3138.675
233.388946533,3155.25
233.69090271,3188.05
233.992858887,3188.325
234.294769287,3146.775
234.596694946,3150.2
234.898605347,3164.45
235.200500488,3150.825
235.502380371,3108.125
235.804244995,3089.825
236.106109619,3044.5
236.407958984,3005.7
236.709777832,2981.325
237.011581421,2943.6
237.313400269,2886.45
237.615203857,2834.35
237.916976929,2801.4
238.21875,2733.1
238.520507812,2679.275
238.822250366,2632.025
239.12399292,2544.3
239.425704956,2513.775
239.727401733,2421.325
240.02911377,2369.975
240.330780029,2299.8
240.632446289,2243.85
240.93409729,2160.275
241.23576355,2103.0
241.537384033,2049.125
241.839004517,1988.15
242.140594482,1917.625
242.442199707,1861.675
242.743774414,1800.975
243.045333862,1743.975
243.346923828,1680.65
243.648452759,1630.1
243.949966431,1564.6
244.251495361,1514.975
244.552993774,1445.05
244.854492188,1397.65
245.155975342,1337.525
245.457443237,1286.675
245.758880615,1225.75
246.060333252,1191.25
246.36177063,1137.45
246.66317749,1079.775
246.964569092,1034.175
247.265945435,990.075
247.567337036,951.2
247.86869812,923.65
248.170059204,879.275
248.471389771,844.825
248.772705078,817.825
249.074035645,793.7
249.375335693,763.125
249.676620483,751.15
249.977890015,724.975
250.279159546,706.675
250.58039856,694.975
250.881637573,668.175
251.182876587,641.5
251.484069824,627.8
251.785263062,620.6
252.086456299,615.925
252.387619019,593.2
252.688781738,585.875
252.989929199,570.475
253.291061401,563.275
253.592178345,558.625
253.893280029,552.025
254.194366455,553.175
254.49546814,535.875
254.796524048,521.8
255.097579956,526.425
255.398620605,511.525
255.699645996,513.925
256.000640869,498.2
256.30166626,505.675
256.602661133,497.775
256.903656006,495.6
257.204589844,493.525
257.505523682,487.95
257.80645752,491.275
258.107391357,484.725
258.408294678,485.375
258.709228516,486.975
259.010070801,484.15
259.310943604,483.325
259.611846924,485.95
259.912658691,481.775
260.213500977,484.2
260.514343262,487.05
260.815124512,485.8
261.115936279,493.95
261.416717529,502.225
261.717468262,507.85
262.018218994,508.1
262.318969727,519.525
262.619689941,533.025
262.920410156,539.6
263.221130371,558.25
263.521789551,572.35
263.822479248,589.75
264.123138428,619.575
264.42376709,624.825
264.72442627,645.55
265.025054932,660.725
265.325622559,691.15
265.626251221,708.725
265.926818848,740.55
266.227386475,737.975
266.527954102,770.925
266.828460693,805.925
267.12902832,813.55
267.429534912,841.875
267.730010986,872.0
268.030517578,893.025
268.330993652,923.55
268.631439209,947.7
268.931915283,984.2
269.232299805,1022.725
269.532745361,1071.6
269.8331604,1088.725
270.133544922,1128.575
270.433929443,1180.8
270.734313965,1222.275
271.034637451,1269.925
271.334991455,1324.25
271.635314941,1380.5
271.935638428,1444.675
272.235931396,1507.675
272.536254883,1568.625
272.836486816,1645.925
273.136749268,1736.85
273.437011719,1837.525
273.737213135,1929.875
274.037445068,2014.2
274.337677002,2114.075
274.6378479,2243.175
274.938049316,2360.475
275.238220215,2469.7
275.538360596,2617.675
275.838500977,2712.175
276.138641357,2878.4
276.438751221,2980.425
276.738830566,3112.8
277.03894043,3249.7
277.338989258,3401.1
277.639038086,3551.2
277.939056396,3676.8
278.239105225,3798.775
278.539093018,3966.7
278.839141846,4098.275
279.139129639,4232.275
279.439086914,4387.4
279.739044189,4521.175
280.039001465,4669.55
280.338928223,4804.7
280.63885498,4958.5
280.938781738,5081.05
281.238647461,5194.3
281.538513184,5323.875
281.838409424,5428.575
282.138244629,5589.1
282.438079834,5678.25
282.737945557,5796.45
283.037719727,5905.35
283.337524414,6022.475
283.637298584,6121.6
283.937072754,6205.275
284.236816406,6313.1
284.536560059,6389.4
284.836303711,6463.175
285.136016846,6605.45
285.43572998,6697.275
285.735412598,6720.85
286.035064697,6822.65
286.334747314,6912.35
286.634368896,6988.325
286.933990479,6987.3
287.233642578,6998.175
287.533203125,7084.9
287.832824707,7066.45
288.132385254,7027.625
288.431945801,6952.125
288.731506348,6888.15
289.031036377,6769.825
289.330566406,6686.375
289.630065918,6745.35
289.92956543,6758.825
290.229034424,6883.8
290.528503418,7049.025
290.827941895,7261.175
291.127380371,7432.65
291.42678833,7582.45
291.726226807,7730.1
292.025604248,7766.425
292.324981689,7856.175
292.624359131,7899.75
292.923736572,7889.625
293.223052979,7964.825
293.522369385,7984.85
293.821685791,7932.875
294.12097168,7965.175
294.420257568,7918.7
294.719543457,7947.35
295.018768311,7950.375
295.318023682,7889.55
295.617248535,7863.05
295.916442871,7821.9
296.215667725,7763.35
296.514862061,7636.4
296.813995361,7440.225
297.11315918,7267.375
297.412322998,7136.55
297.711425781,7108.05
298.010559082,7260.025
298.309631348,7484.825
298.608734131,7689.025
298.907806396,7877.525
299.206848145,8023.65
299.505889893,8137.8
299.804901123,8278.3
300.103912354,8341.6
300.402954102,8411.55
300.701904297,8494.8
301.00088501,8577.55
301.299835205,8648.075
301.5987854,8678.5
301.897735596,8766.6
302.196624756,8807.7
302.495513916,8913.525
302.794403076,8940.05
303.093292236,8997.35
303.392120361,9076.025
303.690979004,9168.975
303.989837646,9229.7
304.288604736,9286.325
304.587402344,9237.15
304.886199951,9308.025
305.184967041,9364.825
305.483734131,9423.2
305.782501221,9444.675
306.081176758,9467.375
306.37991333,9493.275
306.678619385,9490.3
306.977294922,9541.0
307.275970459,9568.45
307.574645996,9579.35
307.873260498,9557.575
308.171875,9558.25
308.470489502,9572.05
308.769104004,9479.025
309.067687988,9497.925
309.366241455,9506.65
309.664794922,9434.8
309.963348389,9473.0
310.261871338,9481.475
310.560394287,9491.4
310.858856201,9500.2
311.157348633,9556.375
311.455810547,9568.525
311.754272461,9570.85
312.052703857,9647.0
312.351135254,9692.1
312.649536133,9671.25
312.947937012,9644.625
313.246307373,9691.775
313.544647217,9725.375
313.843017578,9657.475
314.141387939,9600.0
314.439697266,9674.225
314.738006592,9560.25
315.036315918,9506.6
315.334564209,9433.75
315.6328125,9350.825
315.931091309,9298.0
316.229309082,9202.425
316.527526855,9042.825
316.825744629,9001.725
317.123901367,8924.55
317.422088623,8847.2
317.720245361,8873.25
318.0184021,8895.675
318.316497803,8896.45
318.614654541,8959.925
318.912750244,9055.425
319.21081543,9035.65
319.50894165,9086.725
319.806945801,9089.675
320.104980469,9078.375
320.403045654,9064.1
320.701049805,9037.975
320.999023438,9037.55
321.297027588,8971.925
321.595001221,8967.6
321.892913818,8913.225
322.190887451,8860.475
322.488830566,8807.55
322.786712646,8743.425
323.084625244,8637.45
323.382507324,8644.675
323.680358887,8574.475
323.978210449,8477.825
324.276062012,8424.225
324.573852539,8362.975
324.871643066,8292.25
325.169464111,8225.675
325.467224121,8183.3
325.764984131,8090.45
326.062744141,8030.55
326.360473633,7935.8
326.658203125,7885.225
326.955871582,7806.725
327.253570557,7742.05
327.551239014,7691.425
327.848907471,7625.275
328.146514893,7518.925
328.444152832,7472.675
328.741790771,7416.4
329.039367676,7351.4
329.336914062,7272.7
329.634521484,7214.825
329.932067871,7181.075
330.229553223,7097.8
330.527160645,7025.875
330.824615479,6990.15
331.12210083,6897.15
331.419586182,6764.475
331.717041016,6730.5
332.014465332,6651.825
332.311920166,6600.2
332.609313965,6534.225
332.906707764,6531.35
333.204101562,6519.775
333.501495361,6525.225
333.798828125,6556.35
334.096160889,6623.4
334.39352417,6663.8
334.690795898,6710.275
334.988098145,6770.25
335.285400391,6821.325
335.582641602,6855.775
335.879882812,6893.625
336.177124023,6885.175
336.474334717,6985.775
336.77154541,6969.95
337.068725586,6973.3
337.365905762,6995.025
337.66305542,7002.7
337.960205078,7057.35
338.257324219,7051.2
338.554443359,7055.175
338.8515625,7078.175
339.148590088,7072.625
339.445648193,7089.125
339.742736816,7023.675
340.039764404,7025.8
340.336761475,7000.8
340.63381958,6946.675
340.930755615,6887.575
341.227722168,6816.475
341.524688721,6729.55
341.821624756,6687.075
342.118560791,6696.95
342.415496826,6800.175
342.712402344,6939.55
343.009246826,7081.15
343.306121826,7209.975
343.602966309,7259.975
343.899810791,7338.7
344.196624756,7428.8
344.493438721,7468.45
344.79019165,7506.825
345.086975098,7541.425
345.383758545,7626.425
345.680480957,7575.825
345.977203369,7579.6
346.273956299,7660.65
346.570617676,7628.525
346.86730957,7636.725
347.163970947,7592.85
347.460601807,7665.925
347.757232666,7654.025
348.053894043,7640.625
348.350463867,7523.4
348.647064209,7535.175
348.943634033,7502.325
349.24017334,7499.675
349.536712646,7422.6
349.833251953,7435.15
350.129760742,7415.275
350.426208496,7396.7
350.722747803,7376.375
351.019195557,7353.875
351.315612793,7281.125
351.612060547,7247.325
351.908508301,7179.325
352.204864502,7117.45
352.501281738,7063.875
352.797637939,6972.825
353.093963623,6875.15
353.390319824,6806.125
353.686645508,6722.3
353.982940674,6636.4
354.27923584,6583.9
354.575531006,6524.275
354.871765137,6488.475
355.167999268,6471.95
355.464233398,6446.4
355.760437012,6457.825
356.056640625,6458.725
356.352813721,6432.525
356.648956299,6433.95
356.945129395,6447.75
357.241271973,6416.075
357.537384033,6438.45
357.833496094,6352.375
358.129577637,6320.6
358.425628662,6317.2
358.721679688,6249.925
359.017730713,6242.15
359.313720703,6157.55
359.609710693,6112.75
359.905761719,6037.45
360.201721191,6010.675
360.497650146,5922.3
360.793609619,5891.975
361.089538574,5791.375
361.385437012,5702.325
361.681365967,5634.55
361.977233887,5582.425
362.273071289,5503.8
362.568908691,5393.875
362.864746094,5255.925
363.160552979,5109.775
363.456359863,4935.625
363.752166748,4807.15
364.047912598,4697.15
364.343658447,4659.525
364.639434814,4696.125
364.935119629,4698.8
365.230834961,4753.9
365.526550293,4787.3
365.822174072,4767.6
366.117858887,4768.925
366.413482666,4792.8
366.709075928,4800.025
367.004730225,4692.95
367.300292969,4692.125
367.595855713,4726.85
367.891448975,4595.925
368.186981201,4497.625
368.482513428,4424.3
368.778015137,4399.775
369.073547363,4370.575
369.36895752,4360.75
369.664428711,4246.375
369.95993042,4139.15
370.255310059,4095.025
370.550720215,4041.675
370.846160889,4001.45
371.14151001,3947.575
371.436859131,3922.05
371.73223877,3906.075
372.027557373,3852.325
372.322875977,3793.5
372.618164062,3738.775
372.913482666,3693.0
373.208709717,3668.725
373.503967285,3613.275
373.799194336,3541.725
374.094421387,3552.325
374.389648438,3498.725
374.684844971,3501.0
374.979980469,3532.8
375.275146484,3529.6
375.570281982,3537.55
375.865386963,3521.6
376.160522461,3472.35
376.455596924,3484.225
376.750640869,3551.175
377.045715332,3533.45
377.340759277,3554.4
377.635772705,3595.05
377.93081665,3624.475
378.225769043,3675.075
378.520751953,3710.0
378.815734863,3663.45
379.110656738,3802.25
379.405548096,3938.575
379.700500488,3782.575
379.995391846,3585.9
380.290252686,3621.225
380.585083008,3705.85
380.879974365,3751.95
381.17477417,3646.325
381.469543457,3594.475
381.764404297,3570.325
382.059143066,3600.15
382.353912354,3665.5
382.648651123,3749.1
382.943389893,3708.025
383.238067627,3568.175
383.532775879,3561.15
383.827484131,3499.925
384.12210083,3487.625
384.416778564,3439.825
384.711425781,3360.025
385.006011963,3368.45
385.300628662,3363.875
385.595184326,3410.625
385.88973999,3489.075
386.184295654,3571.675
386.478820801,3624.95
386.77331543,3680.9
387.067840576,3770.675
387.362335205,3844.25
387.656768799,3886.55
387.951202393,3916.825
388.245635986,3968.075
388.540039062,4020.325
388.834472656,4057.975
389.128875732,3987.675
389.423187256,3795.325
389.717559814,3739.725
390.011871338,3832.0
390.306182861,3853.85
390.600463867,3870.6
390.894775391,3915.075
391.189025879,3938.4
391.48324585,3930.575
391.777526855,3955.45
392.071685791,4127.9
392.365875244,4212.175
392.660064697,4269.1
392.95425415,4522.625
393.248382568,4505.375
393.542510986,4131.3
393.836608887,3973.3
394.130706787,3993.2
394.424804688,3931.6
394.71887207,4029.275
395.012878418,4025.375
395.306915283,3925.35
395.600921631,3867.65
395.894927979,3850.5
396.188903809,3882.75
396.482879639,3901.875
396.776794434,4074.475
397.070739746,4029.575
397.364654541,4061.775
397.658538818,4362.2
397.952423096,4385.725
398.246307373,4338.925
398.540100098,4761.0
398.833953857,4696.85
399.127746582,4284.1
399.421508789,4307.075
399.715301514,4245.25
400.009063721,4176.45
400.30279541,4060.925
400.596496582,4002.225
400.890258789,4140.35
401.183929443,4205.725
401.47756958,4117.775
401.771240234,3933.25
402.064880371,3959.775
402.35848999,3981.975
402.652130127,3907.45
402.945678711,3964.175
403.239257812,3946.475
403.532775879,3901.575
403.82635498,3939.1
404.119842529,3880.375
404.413360596,3877.85
404.706848145,3918.4
405.000274658,3867.15
405.293762207,3933.425
405.587188721,3986.175
405.880584717,3866.075
406.17401123,3707.85
406.467407227,3570.2
406.760742188,3550.25
407.054107666,3598.175
407.347442627,3541.95
407.640716553,3554.5
407.934051514,3568.0
408.227325439,3632.25
408.520568848,3839.1
408.813842773,3898.3
409.107086182,3739.7
409.400238037,3706.3
409.693450928,3668.9
409.986633301,3765.275
410.279754639,3689.925
410.572875977,3452.2
410.86605835,3416.025
411.159118652,3420.75
411.452209473,3430.075
411.745330811,3333.875
412.038360596,3267.775
412.331390381,3297.625
412.624420166,3345.725
412.917388916,3262.975
413.210388184,3119.675
413.503387451,3098.725
413.796295166,3009.55
414.089233398,2869.75
414.382141113,2810.625
414.675048828,2805.7
414.967926025,2849.25
415.260803223,2808.95
415.55368042,2821.1
415.846466064,2797.6
416.139282227,2849.35
416.432098389,2985.025
416.724853516,2975.475
417.017608643,2924.45
417.31036377,2944.75
417.603088379,3055.875
417.895782471,3028.325
418.188476562,3012.15
418.481140137,3078.175
418.773803711,3138.85
419.066436768,3108.9
419.359039307,3198.7
419.651641846,3203.05
419.944244385,3210.2
420.236816406,3167.125
420.529327393,3364.275
420.821899414,3427.85
421.114379883,3360.6
421.406860352,3610.05
421.699371338,3818.925
421.991821289,3782.5
422.284240723,3589.65
422.576721191,3493.65
422.869110107,3384.475
423.161468506,3359.825
423.453857422,3383.4
423.74621582,3265.175
424.038543701,3169.05
424.330871582,3139.925
424.623168945,3079.0
424.915435791,3219.8
425.207702637,3182.175
425.499969482,3139.1
425.792205811,3091.425
426.084411621,2871.2
426.376617432,2957.9
426.668762207,3008.175
426.9609375,2908.975
427.253082275,3012.95
427.545196533,3394.875
427.837310791,3132.075
428.129425049,2880.725
428.421447754,3091.2
428.713531494,3085.95
429.005554199,3083.725
429.297576904,3098.025
429.589599609,3492.125
429.881561279,3783.5
430.173522949,3595.2
430.465484619,3557.525
430.757415771,3655.625
431.049316406,3415.375
431.341186523,3213.5
431.633117676,3125.85
431.924957275,2841.8
432.21673584,2746.475
432.508636475,2897.125
432.800415039,2910.75
433.092163086,2808.8
433.383972168,2802.575
433.675689697,3461.05
433.967437744,3920.2
434.259155273,3025.8
434.550872803,2744.325
434.842498779,2801.825
435.134185791,2930.825
435.425842285,2951.85
435.717437744,2872.575
436.009063721,2693.025
436.30065918,2837.025
436.592224121,3161.675
436.883758545,2976.6
437.175323486,2729.575
437.466827393,2723.575
437.758331299,2740.375
438.049804688,2738.675
438.341247559,2828.325
438.63269043,2894.775
438.924163818,2893.125
439.215515137,2838.6
439.50692749,2748.775
439.798309326,2763.95
440.089660645,2752.85
440.380981445,2679.05
440.672332764,2690.325
440.963623047,2931.825
441.254882812,3394.125
441.546173096,3570.325
441.837402344,3325.575
442.128631592,3139.75
442.41986084,3115.55
442.711029053,2995.275
443.002197266,3073.4
443.293365479,3250.725
443.584503174,3380.45
443.875610352,3338.85
444.166717529,3094.725
444.457794189,3142.85
444.748840332,3136.2
445.039916992,3095.65
445.330932617,3205.8
445.621948242,3041.825
445.912963867,2854.6
446.203918457,3083.525
446.494812012,3310.6
446.785827637,3102.075
447.076721191,2933.025
447.367584229,2921.125
447.658447266,2885.025
447.949371338,2958.7
448.24017334,2829.0
448.530975342,2751.425
448.821838379,2920.925
449.112579346,2997.5
449.40335083,2922.55
449.694152832,2969.825
449.984863281,2972.125
450.27557373,2915.1
450.56628418,2964.25
450.856933594,2998.4
451.147583008,2841.35
451.438262939,2729.575
451.728881836,2938.8
452.019470215,3019.475
452.310089111,2833.85
452.600646973,2854.775
452.891174316,2902.125
453.181732178,2730.475
453.472229004,2599.5
453.762695312,2719.725
454.053222656,2738.4
454.343658447,2621.275
454.634063721,2568.625
454.924530029,2731.45
455.214935303,2872.775
455.505279541,2922.45
455.795715332,2798.775
456.086029053,2614.95
456.376312256,2593.775
456.666687012,2627.5
456.956939697,2743.225
457.247192383,2718.725
457.537445068,2799.05
457.827728271,2986.725
458.117919922,2918.5
458.408081055,2850.125
458.698303223,3024.425
458.988433838,2965.725
459.278564453,2781.55
459.568725586,3054.275
459.858825684,3158.075
460.148864746,2863.65
460.438995361,2813.125
460.729034424,2874.175
461.019042969,2895.65
461.309082031,3093.0
461.599060059,2974.8
461.889007568,2528.825
462.179016113,2342.625
462.468933105,2580.025
462.75881958,2693.725
463.048736572,2454.675
463.338592529,2708.025
463.628448486,3067.05
463.918365479,2740.0
464.2081604,2936.15
464.497924805,2897.175
464.787780762,3020.225
465.077514648,3328.0
465.367218018,2942.725
465.657012939,3140.375
465.946685791,3566.3
466.236358643,3174.5
466.526092529,2629.4
466.815734863,2624.55
467.105316162,2558.6
467.394927979,2589.9
467.684570312,2458.975
467.974121094,2548.175
468.263671875,2651.325
468.553222656,2435.175
468.842773438,2333.875
469.132232666,2233.6
469.42175293,2255.2
469.711212158,2223.45
470.000640869,2100.025
470.290100098,2174.625
470.579498291,2206.075
470.868835449,2216.025
471.158294678,2154.425
471.447601318,2147.95
471.736907959,2219.2
472.026275635,2284.75
472.315551758,2253.8
472.604797363,2257.625
472.894104004,2394.625
473.183319092,2516.25
473.47253418,2497.65
473.761779785,2480.2
474.05090332,2429.625
474.340087891,2382.025
474.629241943,2301.775
474.918365479,2475.65
475.207427979,2755.4
475.496551514,2794.775
475.785614014,2521.975
476.074645996,2324.325
476.363708496,2417.625
476.652679443,2565.425
476.941650391,2382.775
477.230682373,2228.25
477.519622803,2218.3
477.808502197,2373.275
478.097412109,2651.575
478.386352539,2594.375
478.675201416,2329.45
478.964050293,2233.675
479.25289917,2425.675
479.541717529,2504.55
479.830474854,2323.025
480.11932373,2688.775
480.408050537,2862.025
480.696777344,2478.175
480.985534668,2335.875
481.274200439,2437.625
481.562866211,2690.575
481.851593018,2736.4
482.140197754,2654.725
482.428833008,2499.375
482.717468262,2295.7
483.006011963,2331.25
483.294586182,2445.85
483.5831604,2497.475
483.871673584,2354.425
484.16015625,2506.55
484.448699951,2742.325
484.7371521,2792.775
485.02557373,2791.575
485.314025879,2522.35
485.602416992,3921.85
485.890777588,13862.4
486.179199219,12417.4
486.467559814,3332.5
486.755859375,2436.775
487.044219971,2825.65
487.332519531,3020.1
487.620758057,2595.5
487.908966064,2342.95
488.197265625,2130.875
488.485473633,2008.95
488.773651123,2134.7
489.061859131,2139.2
489.350006104,2082.225
489.638122559,2017.325
489.926300049,2064.575
490.214355469,1998.825
490.502441406,1951.8
490.790527344,1889.45
491.078552246,2076.4
491.366546631,2075.225
491.654602051,1829.925
491.942565918,1924.175
492.230499268,1969.575
492.518493652,1921.05
492.806396484,1963.75
493.094268799,1868.075
493.382202148,1911.35
493.670074463,2051.45
493.957885742,1886.325
494.245727539,1879.05
494.533508301,2053.225
494.821289062,1937.85
495.109100342,1775.95
495.396850586,1726.375
495.684539795,1681.875
495.972290039,1910.475
496.25994873,2268.875
496.547607422,2284.3
496.835296631,2083.675
497.122894287,1742.575
497.410522461,1670.375
497.6980896,1664.425
497.985687256,1634.825
498.273223877,1742.275
498.560760498,1818.5
498.848266602,1838.975
499.135772705,1820.325
499.423217773,1867.85
499.710693359,1984.85
499.998138428,1915.95
500.285522461,1741.3
500.572937012,1653.8
500.860290527,1731.375
501.147644043,1817.625
501.434997559,2083.1
501.722290039,1920.2
502.00958252,1677.275
502.296875,1972.175
502.584106445,1952.7
502.871337891,1750.525
503.158599854,1849.1
503.445770264,1920.15
503.732910156,1917.625
504.020141602,1711.2
504.307220459,1689.9
504.594329834,1716.45
504.881469727,1655.875
505.168518066,1730.95
505.455535889,1814.0
505.742614746,1670.2
506.029632568,1607.275
506.316589355,1821.625
506.603637695,1906.6
506.890563965,1696.15
507.177459717,1510.575
507.464385986,1419.975
507.751312256,1670.3
508.038146973,1760.425
508.325012207,1613.1
508.611877441,1668.775
508.898681641,1683.8
509.185424805,1500.5
509.472259521,1459.975
509.759002686,1554.1
510.045715332,1586.85
510.332458496,1532.3
510.619140625,1591.1
510.905761719,1500.725
511.192504883,1494.375
511.479095459,1538.75
511.765686035,1492.75
512.052307129,1400.225
512.338928223,1342.725
512.625427246,1396.925
512.91204834,1471.05
513.198486328,1440.375
513.484985352,1401.25
513.77142334,1335.375
514.057922363,1379.35
514.344299316,1374.75
514.63079834,1329.075
514.917175293,1307.325
515.203552246,1213.525
515.489868164,1199.1
515.776245117,1326.7
516.0625,1371.7
516.348815918,1272.05
516.635070801,1306.625
516.921325684,1368.9
517.207580566,1296.525
517.493774414,1201.575
517.779968262,1211.6
518.066101074,1252.475
518.352294922,1189.55
518.638366699,1202.375
518.924499512,1294.575
519.210632324,1384.075
519.496643066,1337.3
519.782714844,1224.775
520.068786621,1185.825
520.354736328,1143.275
520.640686035,1099.35
520.926757812,1151.95
521.212646484,1232.725
521.498535156,1240.225
521.784484863,1180.725
522.0703125,1111.675
522.356262207,1126.275
522.642089844,1206.65
522.927856445,1219.675
523.213684082,1208.15
523.499511719,1188.475
523.78527832,1228.3
524.070983887,1283.5
524.356750488,1273.4
524.64239502,1222.475
524.928039551,1217.275
525.213806152,1229.55
525.499389648,1229.725
525.784973145,1254.025
526.070617676,1293.3
526.356140137,1269.15
526.641723633,1263.775
526.927307129,1345.225
527.212768555,1355.225
527.498291016,1322.9
527.783752441,1322.225
528.069213867,1307.225
528.354675293,1330.25
528.640014648,1508.45
528.925476074,1582.825
529.21081543,1499.2
529.496154785,1477.875
529.781555176,1434.875
530.066833496,1450.525
530.352050781,1466.4
530.637390137,1458.175
530.922607422,1452.825
531.207824707,1446.125
531.493041992,1438.0
531.778198242,1524.4
532.063354492,1500.85
532.348571777,1437.5
532.633666992,1457.025
532.918762207,1539.5
533.203857422,1631.275
533.488891602,1667.625
533.773925781,1600.625
534.059020996,1574.55
534.343933105,1611.45
534.628967285,1577.55
534.91394043,1598.025
535.198852539,1617.85
535.483703613,1590.1
535.768676758,1518.775
536.053527832,1528.2
536.338317871,1474.575
536.62322998,1417.725
536.90802002,1383.05
537.192810059,1409.15
537.477539062,1491.375
537.762329102,1542.225
538.047058105,1585.525
538.331726074,1615.775
538.616455078,1604.9
538.901123047,1580.825
539.18572998,1621.85
539.470397949,1637.125
539.755004883,1615.4
540.039550781,1576.225
540.32409668,1531.525
540.608703613,1577.075
540.893188477,1678.375
541.17767334,1689.675
541.462158203,1711.35
541.746643066,1636.75
542.031066895,1697.4
542.315429688,1740.65
542.59979248,1736.375
542.884216309,1721.5
543.168579102,1725.1
543.452941895,1719.775
543.737243652,1782.1
544.021484375,1830.275
544.305725098,1818.725
544.590026855,1798.1
544.874267578,1797.875
545.158447266,1888.05
545.442626953,1786.625
545.726806641,1673.075
546.010925293,1708.525
546.29510498,1747.775
546.579162598,1749.5
546.863220215,1779.275
547.147277832,1853.45
547.431335449,1944.45
547.715332031,2016.675
547.999328613,2137.175
548.283325195,2136.875
548.567260742,1982.5
548.851135254,1961.575
549.135070801,1913.4
549.419006348,1820.85
549.702819824,1935.45
549.986755371,2010.85
550.270507812,1955.225
550.554321289,2017.6
550.83807373,2032.05
551.121826172,1978.9
551.405517578,1999.775
551.689331055,2127.725
551.973022461,2380.85
552.256652832,2447.475
552.540344238,2341.8
552.823974609,2320.225
553.107543945,2301.7
553.391174316,2364.075
553.674743652,2420.35
553.958251953,2434.45
554.241821289,2450.625
554.525268555,2376.175
554.808776855,2357.875
555.092285156,2589.9
555.375671387,2683.375
555.659057617,2669.75
555.942504883,2704.925
556.225891113,2747.5
556.509216309,2695.425
556.792541504,2600.7
557.075866699,2692.55
557.359130859,2715.775
557.64239502,2728.025
557.92565918,2812.025
558.208862305,2781.7
558.49206543,2713.35
558.77532959,2729.775
559.058410645,2790.025
559.341552734,2766.775
559.624694824,2830.325
559.907775879,2902.275
560.190856934,3052.3
560.473937988,3040.2
560.756896973,3071.275
561.039978027,3133.375
561.322937012,3063.125
561.605895996,3055.0
561.88885498,3028.225
562.171813965,3042.675
562.454650879,3021.275
562.737548828,3054.375
563.020446777,3150.675
563.303283691,3164.75
563.58605957,3201.2
563.868896484,3223.475
564.151672363,3268.875
564.434387207,3303.225
564.717163086,3273.625
564.99987793,3324.2
565.282531738,3392.875
565.565185547,3310.375
565.847839355,3339.0
566.130432129,3462.15
566.413085938,3442.475
566.695678711,3446.025
566.978149414,3563.35
567.260681152,3724.375
567.543273926,3824.925
567.825744629,3710.225
568.108154297,3744.85
568.390686035,3906.7
568.673095703,4036.875
568.955505371,4099.2
569.237854004,4115.6
569.520202637,4429.425
569.802490234,4659.775
570.084838867,4619.05
570.367126465,4445.925
570.649414062,4479.325
570.93170166,4868.9
571.213928223,4954.225
571.496154785,4667.95
571.778381348,4905.5
572.06048584,5199.45
572.342590332,4684.525
572.624755859,4306.4
572.906860352,4384.975
573.188903809,5148.05
573.470947266,5405.65
573.752990723,5139.7
574.03503418,5242.725
574.317016602,5696.625
574.598937988,5456.525
574.88092041,5312.85
575.162841797,5529.3
575.444763184,5118.05
575.726623535,4816.95
576.008483887,4875.775
576.290344238,5298.6
576.572143555,5548.25
576.853881836,5603.25
577.135681152,5476.6
577.417419434,5548.75
577.699157715,6541.425
577.980895996,6715.95
578.262573242,5997.675
578.544128418,5453.875
578.825866699,5357.6
579.107421875,5040.175
579.388977051,5249.625
579.670593262,5671.15
579.952148438,5481.025
580.233642578,5609.675
580.515197754,5741.275
580.796691895,5401.975
581.078125,5597.325
581.359619141,7284.075
581.640991211,7374.075
581.922363281,6371.35
582.203796387,6433.225
582.485107422,6024.7
582.766418457,5584.5
583.047790527,5407.475
583.329040527,5288.85
583.610290527,5151.75
583.891540527,5261.525
584.172790527,5611.65
584.453918457,5640.475
584.735107422,5692.95
585.016235352,6201.9
585.297363281,6157.25
585.578552246,5937.3
585.859619141,5872.55
586.140625,5610.4
586.421630859,5467.9
586.702697754,5511.275
586.983642578,5761.05
587.264648438,5951.9
587.545654297,5875.05
587.826477051,5814.35
588.107421875,5628.925
588.388305664,5665.0
588.669189453,5768.975
588.950012207,5601.65
589.230834961,5489.25
589.511657715,5553.05
589.792358398,5687.6
590.073120117,5672.75
590.353881836,5640.15
590.63458252,5680.225
590.915283203,5633.525
591.195922852,5627.85
591.4765625,5694.475
591.757202148,5724.0
592.037780762,5677.75
592.31829834,5717.8
592.598937988,5950.85
592.879394531,6115.825
593.159912109,6006.2
593.440429688,5934.45
593.720825195,5915.925
594.001281738,5890.55
594.281677246,5808.475
594.562072754,5824.95
594.842407227,5926.375
595.122802734,5978.425
595.403137207,5957.65
595.683410645,5925.475
595.963623047,5918.85
596.243896484,5863.15
596.524169922,5873.8
596.804382324,5896.375
597.084533691,5915.825
597.364746094,5946.0
597.644836426,5966.25
597.924987793,5976.025
598.205078125,5916.2
598.485107422,5951.725
598.765197754,6082.3
599.045227051,6147.775
599.325195312,6022.45
599.605224609,6003.15
599.885192871,6025.25
600.165100098,6069.85
600.445007324,6032.225
600.724914551,6028.675
601.004760742,6017.475
601.284667969,6056.6
601.56451416,6033.3
601.844238281,6017.55
602.124084473,6022.775
602.403808594,6034.75
602.683532715,6078.125
602.963256836,6054.875
603.242919922,6102.175
603.522583008,6162.7
603.802246094,6106.475
604.081848145,6070.75
604.36138916,6072.35
604.641052246,6101.725
604.920532227,6067.525
605.200073242,6090.425
605.479614258,6108.625
605.759094238,6178.2
606.038574219,6159.625
606.317932129,6081.95
606.597412109,6083.175
606.87677002,6098.225
607.15612793,6136.975
607.435546875,6154.875
607.714782715,6147.425
607.99407959,6099.475
608.273376465,6094.225
608.552612305,6122.95
608.831848145,6099.575
609.111083984,6119.85
609.390258789,6106.875
609.669433594,6093.475
609.948608398,6181.75
610.227722168,6157.675
610.506713867,6087.85
610.785888672,6096.25
611.064880371,6085.625
611.34387207,6092.975
611.622924805,6122.35
611.901916504,6099.025
612.180847168,6039.15
612.459777832,6028.175
612.738647461,6032.325
613.01751709,6026.2
613.296447754,5961.875
613.575317383,5942.55
613.854064941,5879.65
614.132873535,5768.75
614.411621094,5732.35
614.690368652,5690.225
614.969177246,5620.95
615.247802734,5519.275
615.526489258,5499.075
615.805175781,5388.75
616.08380127,5256.7
616.362365723,5154.6
616.640991211,5104.075
616.919555664,5057.1
617.198059082,5206.0
617.4765625,5472.675
617.755126953,5655.1
618.033569336,5682.05
618.311950684,5699.725
618.590454102,5666.575
618.868774414,5622.15
619.147155762,5654.85
619.425598145,5629.4
619.703857422,5634.675
619.982177734,5667.9
620.260498047,5640.875
620.538757324,5622.9
620.816955566,5599.275
621.095214844,5560.15
621.373413086,5580.275
621.651550293,5640.55
621.929748535,5648.5
622.207824707,5647.275
622.485900879,5678.975
622.764038086,5643.475
623.042053223,5684.0
623.320007324,5723.25
623.598083496,5721.05
623.876037598,5702.7
624.153991699,5732.5
624.432006836,5757.0
624.709838867,5737.025
624.987731934,5726.85
625.265563965,5742.875
625.543395996,5748.425
625.821228027,5794.575
626.098999023,5780.95
626.376831055,5859.725
626.654541016,5879.275
626.932250977,5905.525
627.209960938,5960.225
627.487670898,5992.775
627.765319824,5988.975
628.04296875,5988.0
628.320495605,6016.4
628.598083496,6030.725
628.875671387,6052.725
629.153259277,6087.175
629.430725098,6126.475
629.708251953,6118.375
629.985656738,6170.35
630.263122559,6202.8
630.540588379,6214.15
630.817932129,6243.975
631.095275879,6278.3
631.372680664,6317.375
631.649963379,6361.65
631.927246094,6408.075
632.204589844,6447.725
632.481811523,6533.1
632.759033203,6605.5
633.036254883,6618.175
633.313415527,6698.45
633.590576172,6784.25
633.867736816,6899.65
634.144836426,6941.425
634.421875,7032.325
634.698913574,7067.2
634.976013184,7127.225
635.252990723,7207.925
635.529968262,7237.35
635.807006836,7329.1
636.08392334,7308.475
636.360839844,7199.425
636.637756348,7095.975
636.914611816,7045.875
637.191467285,7032.05
637.468261719,7139.975
637.745056152,7108.775
638.021789551,7116.325
638.298583984,7140.9
638.575317383,7173.9
638.851989746,7168.425
639.12878418,7207.95
639.405395508,7162.0
639.682006836,7226.3
639.958618164,7224.325
640.235229492,7182.175
640.511779785,7240.075
640.788330078,7225.9
641.064880371,7219.55
641.341308594,7193.7
641.617797852,7211.55
641.894226074,7233.225
642.170654297,7241.95
642.44708252,7248.525
642.723388672,7252.775
642.999755859,7246.0
643.276123047,7273.025
643.552429199,7220.95
643.828674316,7221.05
644.104919434,7222.875
644.381164551,7223.625
644.657348633,7234.625
644.933532715,7164.9
645.209716797,7194.45
645.485839844,7189.55
645.761901855,7189.175
646.038024902,7181.125
646.314086914,7214.525
646.590087891,7204.875
646.866149902,7225.525
647.142150879,7162.525
647.41809082,7149.375
647.694030762,7153.1
647.969970703,7154.925
648.245788574,7195.05
648.521728516,7165.675
648.797546387,7158.85
649.073303223,7157.9
649.349182129,7145.05
649.624938965,7132.775
649.900634766,7150.45
650.176391602,7133.4
650.452087402,7143.725
650.727783203,7102.375
651.003479004,7111.125
651.279052734,7124.125
651.554626465,7118.575
651.83026123,7127.625
652.105773926,7153.325
652.381286621,7095.725
652.656860352,7103.35
652.932312012,7122.2
653.207763672,7133.15
653.483215332,7185.7
653.758605957,7169.925
654.033935547,7176.05
654.309326172,7171.225
654.584716797,7218.225
654.859985352,7165.675
655.135253906,7237.5
655.410583496,7233.075
655.685791016,8314.375
655.9609375,12927.85
656.236206055,12627.7
656.511291504,8427.25
656.786437988,7401.525
657.061645508,7280.875
657.336669922,7226.1
657.611694336,7307.85
657.886779785,7321.25
658.161804199,7353.1
658.436828613,7297.55
658.711791992,7296.675
658.986755371,7336.925
659.261657715,7344.725
659.536621094,7382.15
659.811401367,7358.775
660.086303711,7396.1
660.36114502,7386.525
660.635864258,7372.55
660.910644531,7438.125
661.185424805,7420.475
661.460205078,7465.35
661.734863281,7448.1
662.009521484,7428.0
662.284179688,7464.875
662.558776855,7489.975
662.833435059,7533.275
663.108032227,7535.175
663.382568359,7514.7
663.657043457,7581.775
663.93157959,7617.675
664.206054688,7579.35
664.48046875,7664.95
664.755004883,7663.225
665.02935791,7687.475
665.303710938,7682.225
665.578125,7727.375
665.852416992,7738.65
666.126708984,7721.975
666.401062012,7743.425
666.675292969,7781.075
666.949462891,7794.225
667.223754883,7825.7
667.497924805,7851.3
667.772094727,7833.425
668.046264648,7813.225
668.3203125,7907.175
668.594421387,7905.425
668.868469238,7933.925
669.14251709,7952.75
669.416503906,7943.225
669.690551758,7977.65
669.964477539,7985.7
670.23840332,8001.1
670.512329102,8001.425
670.786254883,7970.15
671.060058594,8052.475
671.333984375,8059.425
671.607788086,8085.2
671.881530762,8063.375
672.155334473,8131.9
672.429077148,8154.4
672.702758789,8134.025
672.97644043,8158.9
673.25012207,8163.025
673.523742676,8157.575
673.797302246,8147.55
674.070922852,8244.875
674.344482422,8250.975
674.618041992,8250.2
674.891601562,8234.6
675.165100098,8283.925
675.438476562,8251.35
675.711975098,8276.125
675.985412598,8285.65
676.258789062,8258.125
676.532165527,8322.325
676.805480957,8312.7
677.078796387,8348.375
677.352111816,8372.55
677.625366211,8344.35
677.898620605,8342.6
678.171875,8383.275
678.445007324,8364.85
678.718200684,8421.5
678.991394043,8410.25
679.264404297,8405.825
679.537536621,8444.75
679.81060791,8464.05
680.083679199,8485.9
680.356689453,8485.95
680.629699707,8498.7
680.902648926,8476.725
681.175598145,8556.65
681.448547363,8585.6
681.721435547,8542.775
681.99420166,8550.375
682.267150879,8529.175
682.539916992,8599.8
682.812744141,8574.9
683.085510254,8562.5
683.358215332,8614.875
683.63092041,8574.35
683.903625488,8608.125
684.176330566,8572.375
684.448913574,8574.3
684.721557617,8589.2
684.99420166,8648.375
685.266662598,8637.225
685.539245605,8650.8
685.811767578,8703.9
686.084289551,8713.375
686.356689453,8740.75
686.629150391,8762.15
686.901550293,8799.775
687.17401123,8790.15
687.446350098,8835.2
687.718688965,8847.75
687.990966797,8917.725
688.263305664,8921.575
688.535522461,8894.825
688.807739258,8886.675
689.079956055,8947.675
689.352172852,8989.075
689.624328613,8954.15
689.896484375,8981.625
690.168518066,8978.2
690.440612793,9028.3
690.71270752,9052.175
690.984741211,9032.6
691.256713867,9079.475
691.528747559,9077.4
691.800720215,9092.375
692.072631836,9098.35
692.344543457,9141.05
692.616394043,9146.0
692.888244629,9154.65
693.160095215,9213.75
693.431945801,9259.2
693.703674316,9266.675
693.975463867,9202.275
694.247131348,9273.325
694.518859863,9256.175
694.790588379,9287.05
695.062255859,9287.6
695.33380127,9281.3
695.60546875,9259.975
695.87701416,9307.6
696.148498535,9333.525
696.42010498,9377.3
696.691589355,9410.4
696.96307373,9441.75
697.234558105,9467.525
697.50592041,9470.225
697.777282715,9516.475
698.048706055,9492.125
698.320068359,9521.95
698.591308594,9500.175
698.862670898,9525.55
699.133972168,9580.55
699.405151367,9541.3
699.676391602,9622.925
699.947570801,9591.925
700.21875,9608.225
700.489868164,9613.85
700.761047363,9624.475
701.032104492,9689.275
701.303100586,9612.275
701.57421875,9712.425
701.845214844,9680.7
702.116149902,9741.875
702.387207031,9704.925
702.65814209,9699.6
702.928955078,9750.625
703.199951172,9706.775
703.47076416,9711.025
703.741577148,9725.725
704.012451172,9756.85
704.28314209,9759.175
704.553955078,9744.85
704.824707031,9812.775
705.095397949,9846.2
705.366027832,9887.425
705.63671875,9865.425
705.907348633,9841.375
706.17791748,9863.425
706.448486328,9898.075
706.719055176,9909.65
706.989562988,9907.35
707.260131836,9941.625
707.530517578,9967.7
707.800964355,9954.825
708.071411133,9922.3
708.341796875,9946.0
708.612182617,9962.5
708.882446289,9945.6
709.152893066,9969.45
709.423156738,9961.675
709.693359375,9934.6
709.963623047,9991.275
710.233825684,10004.7
710.503967285,9947.075
710.774169922,9986.775
711.044311523,9997.725
711.31439209,9965.425
711.584533691,10006.35
711.854553223,10023.975
712.124572754,10055.65
712.39465332,9973.25
712.664611816,10034.875
712.934509277,10104.175
713.204467773,10056.05
713.474365234,10107.15
713.74420166,10077.875
714.014099121,10094.175
714.283874512,10072.15
714.553710938,10107.225
714.823486328,10110.45
715.093200684,10098.0
715.362915039,10109.725
715.632629395,10101.1
715.902282715,10048.125
716.171875,10054.975
716.441589355,10100.525
716.711181641,10063.65
716.980712891,10078.975
717.250244141,10070.55
717.519775391,10067.625
717.78918457,10117.05
718.058654785,10156.125
718.328125,10190.85
718.597473145,10141.95
718.866882324,10146.025
719.136230469,10161.05
719.405578613,10176.575
719.674865723,10214.65
719.944152832,10191.725
720.213439941,10166.3
720.48260498,10192.85
720.75177002,10209.125
721.020996094,10207.4
721.290100098,10214.4
721.559204102,10195.65
721.828308105,10224.075
722.097351074,10225.4
722.366455078,10192.025
722.635437012,10176.525
722.904418945,10148.65
723.173400879,10201.675
723.442321777,10213.675
723.711181641,10196.825
723.980102539,10248.675
724.248962402,10237.625
724.51776123,10222.75
724.786560059,10236.4
725.055358887,10246.05
725.324035645,10217.675
725.592834473,10263.075
725.86151123,10208.325
726.130187988,10207.425
726.398803711,10198.7
726.667419434,10225.75
726.935974121,10214.45
727.204528809,10150.0
727.473083496,10169.825
727.741638184,10117.325
728.010070801,10100.5
728.278564453,10139.425
728.546936035,10105.1
728.815368652,10021.35
729.08380127,9941.4
729.352111816,9915.95
729.620361328,9847.425
729.88873291,9911.0
730.156982422,9953.55
730.425231934,9991.375
730.693481445,9968.875
730.961669922,10026.275
731.229797363,10068.375
731.49798584,10109.525
731.766113281,10186.175
732.034118652,10240.95
732.302246094,10314.425
732.570251465,10358.875
732.838256836,10380.275
733.106262207,10487.8
733.374145508,10502.375
733.642089844,10545.675
733.909973145,10615.05
734.177856445,10703.35
734.445678711,10768.175
734.713562012,10902.9
734.981323242,10895.975
735.249084473,10976.2
735.516845703,11177.525
735.784545898,11235.15
736.052185059,11238.05
736.319885254,11371.75
736.587524414,11384.975
736.855102539,11493.125
737.122619629,11646.65
737.390197754,11671.55
737.657714844,11811.05
737.925170898,11868.725
738.192749023,12001.35
738.460144043,12044.55
738.727539062,12117.525
738.994995117,12227.475
739.262329102,12309.85
739.529663086,12436.2
739.79699707,12451.35
740.06427002,12536.825
740.331481934,12620.15
740.598754883,12692.75
740.865905762,12735.125
741.133056641,12939.125
741.40032959,12945.675
741.667358398,12992.075
741.934448242,13075.85
742.201599121,13094.525
742.468566895,13191.025
742.735534668,13246.875
743.002563477,13325.4
743.26953125,13310.825
743.536437988,13382.675
743.803405762,13479.375
744.0703125,13428.2
744.337097168,13563.8
744.604003906,13447.1
744.870727539,13547.825
745.137512207,13623.7
745.40423584,13643.825
745.670959473,13580.175
745.93762207,13615.275
746.204284668,13644.3
746.470947266,13647.25
746.737548828,13658.45
747.004089355,13679.825
747.270751953,13650.025
747.53717041,13710.15
747.803710938,13645.425
748.070251465,13607.25
748.336608887,13641.85
748.603027344,13632.625
748.869445801,13620.975
749.135803223,13634.2
749.402099609,13615.55
749.668457031,13626.525
749.934753418,13584.625
750.20098877,13544.925
750.467224121,13575.025
750.733459473,13559.825
750.999572754,13550.65
751.26574707,13440.625
751.531860352,13489.4
751.797912598,13460.075
752.064025879,13357.075
752.330078125,13399.975
752.596069336,13362.175
752.862060547,13345.475
753.127990723,13365.825
753.393920898,13318.65
753.659912109,13271.95
753.925720215,13310.925
754.19152832,13270.6
754.457397461,13181.4
754.723144531,13142.975
754.988952637,13121.95
755.254699707,13139.525
755.520385742,13166.35
755.786071777,13169.975
756.051696777,13110.225
756.317382812,13023.0
756.582946777,13002.55
756.848510742,13053.675
757.114074707,12976.6
757.379577637,12955.225
757.645080566,13043.475
757.910583496,13008.95
758.175964355,12919.325
758.441345215,12918.1
758.706848145,12758.3
758.972106934,12783.7
759.237426758,12793.875
759.502807617,12809.975
759.768005371,12783.7
760.03326416,12745.35
760.298522949,12663.05
760.563659668,12681.35
760.828857422,12660.35
761.093994141,12688.925
761.359130859,12608.125
761.624206543,12594.875
761.889282227,12520.7
762.15423584,12517.6
762.419250488,12514.375
762.684265137,12458.6
762.949157715,12402.4
763.214050293,12389.425
763.479003906,12382.7
763.743835449,12400.15
764.008666992,12333.05
764.2734375,12310.075
764.538208008,12341.8
764.802978516,12397.875
765.067687988,12339.225
765.332397461,12345.125
765.597045898,12308.6
765.861694336,12291.425
766.126342773,12233.175
766.390930176,12215.45
766.655395508,12144.9
766.920043945,12109.925
767.184509277,12094.825
767.448974609,12089.525
767.713439941,12077.475
767.977783203,12038.575
768.2421875,12105.35
768.506591797,11984.35
768.770874023,12125.85
769.03515625,12032.85
769.299499512,12028.8
769.563720703,12024.6
769.827941895,11950.675
770.092163086,11936.325
770.356323242,11935.85
770.620483398,11927.825
770.88458252,11960.35
771.148681641,11957.475
771.412719727,11910.375
771.676757812,11944.4
771.940734863,11863.9
772.204711914,11880.35
772.468688965,11848.725
772.73260498,11818.25
772.996459961,11831.225
773.260314941,10539.175
773.524169922,1325.3
773.787963867,156.2
774.051696777,120.575
774.315551758,117.525
774.579223633,118.875
774.842895508,120.35
775.106567383,120.35
775.370239258,114.4
775.633789062,121.025
775.897399902,123.025
776.160949707,119.55
776.424499512,118.85
776.687988281,120.625
776.951477051,124.725
777.214904785,120.05
777.47833252,121.1
