191.299911499,99.8
191.603515625,101.975
191.907119751,95.75
192.210693359,103.7
192.514251709,96.675
192.817810059,102.2
193.121368408,102.05
193.42489624,104.975
193.728408813,97.75
194.031936646,98.5
194.33543396,95.875
194.638916016,111.9
194.94241333,95.4
195.245880127,96.225
195.549331665,95.825
195.852767944,100.55
196.156204224,185.225
196.459625244,179.25
196.763015747,182.0
197.066436768,189.15
197.369812012,181.8
197.673187256,185.3
197.9765625,182.75
198.279922485,182.775
198.583251953,175.45
198.886581421,185.15
199.18989563,186.5
199.493209839,186.0
199.79649353,175.6
200.09979248,186.1
200.403076172,182.1
200.706314087,183.1
201.009567261,180.4
201.312820435,184.7
201.616027832,176.5
201.919235229,172.5
202.222457886,176.775
202.525634766,181.65
202.828826904,173.15
203.132003784,173.325
203.435150146,172.95
203.738296509,172.175
204.041412354,170.25
204.344558716,176.85
204.647659302,180.15
204.950759888,181.625
205.253845215,177.4
205.556930542,175.9
205.859985352,178.575
206.163024902,174.2
206.466079712,179.9
206.769104004,186.45
207.072113037,178.15
207.375137329,181.85
207.678131104,179.5
207.981109619,183.0
208.284088135,181.05
208.587036133,184.95
208.889984131,182.575
209.19291687,185.0
209.495849609,183.35
209.798751831,184.35
210.101654053,184.0
210.404556274,184.775
210.707427979,185.275
211.010269165,195.55
211.31312561,190.825
211.615982056,186.975
211.918807983,191.4
212.221618652,186.75
212.524429321,185.0
212.827224731,196.0
213.130004883,191.6
213.432769775,197.975
213.735534668,194.05
214.038269043,198.3
214.341003418,197.5
214.643737793,197.85
214.946456909,199.65
215.249145508,205.0
215.551834106,209.025
215.854507446,202.85
216.157165527,204.4
216.45980835,205.875
216.762451172,211.15
217.065078735,210.475
217.36769104,211.375
217.670303345,213.3
217.972885132,216.25
218.275466919,221.75
218.578048706,222.85
218.880599976,229.675
219.183120728,233.475
219.485656738,243.05
219.788192749,255.6
220.090682983,274.075
220.393188477,296.75
220.695663452,338.3
220.998138428,363.675
221.300582886,423.2
221.603042603,458.9
221.905487061,521.6
222.207901001,584.375
222.510299683,657.15
222.812728882,739.8
223.115097046,830.0
223.41746521,928.7
223.719848633,1015.275
224.022171021,1108.55
224.324508667,1216.85
224.626846313,1339.375
224.929168701,1422.775
225.231460571,1539.2
225.533737183,1643.525
225.836013794,1766.325
226.138290405,1880.95
226.440536499,1955.525
226.742767334,2088.75
227.044998169,2161.15
227.347213745,2285.55
227.649429321,2367.45
227.951629639,2441.95
228.253799438,2527.45
228.555953979,2606.575
228.858123779,2694.625
229.160263062,2769.25
229.462371826,2827.9
229.764511108,2907.675
230.066619873,2960.25
230.36869812,3044.775
230.670776367,3100.5
230.972854614,3171.2
231.274902344,3244.65
231.576950073,3318.725
231.878967285,3395.55
232.180999756,3491.15
232.48298645,3560.55
232.784988403,3644.1
233.086975098,3713.7
233.388946533,3770.075
233.69090271,3873.0
233.992858887,3968.275
234.294769287,3979.9
234.596694946,4071.75
234.898605347,4146.05
235.200500488,4175.875
235.502380371,4247.175
235.804244995,4324.25
236.106109619,4328.325
236.407958984,4356.45
236.709777832,4400.3
237.011581421,4448.625
237.313400269,4490.475
237.615203857,4491.85
237.916976929,4550.825
238.21875,4557.075
238.520507812,4609.7
238.822250366,4633.15
239.12399292,4664.675
239.425704956,4706.2
239.727401733,4694.5
240.02911377,4754.375
240.330780029,4732.6
240.632446289,4769.525
240.93409729,4792.475
241.23576355,4831.6
241.537384033,4858.875
241.839004517,4869.375
242.140594482,4917.375
242.442199707,4959.05
242.743774414,4991.6
243.045333862,5034.225
243.346923828,5059.65
243.648452759,5072.3
243.949966431,5083.325
244.251495361,5113.9
244.552993774,5136.35
244.854492188,5105.55
245.155975342,5120.8
245.457443237,5133.925
245.758880615,5109.65
246.060333252,5141.85
246.36177063,5072.4
246.66317749,5079.7
246.964569092,5031.35
247.265945435,5028.775
247.567337036,5032.1
247.86869812,5051.5
248.170059204,5057.9
248.471389771,5026.35
248.772705078,5063.675
249.074035645,5090.825
249.375335693,5097.775
249.676620483,5140.65
249.977890015,5186.5
250.279159546,5223.05
250.58039856,5271.65
250.881637573,5281.7
251.182876587,5341.75
251.484069824,5412.825
251.785263062,5470.1
252.086456299,5534.725
252.387619019,5552.45
252.688781738,5602.55
252.989929199,5665.925
253.291061401,5750.95
253.592178345,5826.1
253.893280029,5869.025
254.194366455,5921.3
254.49546814,5950.8
254.796524048,5961.675
255.097579956,6020.65
255.398620605,6057.675
255.699645996,6094.675
256.000640869,6106.325
256.30166626,6126.825
256.602661133,6157.775
256.903656006,6142.675
257.204589844,6133.05
257.505523682,6116.45
257.80645752,6142.8
258.107391357,6116.175
258.408294678,6104.9
258.709228516,6065.575
259.010070801,5993.275
259.310943604,5977.5
259.611846924,5951.2
259.912658691,5881.4
260.213500977,5855.1
260.514343262,5799.7
260.815124512,5708.7
261.115936279,5695.4
261.416717529,5673.6
261.717468262,5627.05
262.018218994,5577.225
262.318969727,5558.45
262.619689941,5561.825
262.920410156,5596.1
263.221130371,5631.0
263.521789551,5656.4
263.822479248,5668.325
264.123138428,5693.575
264.42376709,5709.275
264.72442627,5673.125
265.025054932,5663.4
265.325622559,5674.225
265.626251221,5658.15
265.926818848,5622.55
266.227386475,5554.775
266.527954102,5526.675
266.828460693,5517.65
267.12902832,5405.7
267.429534912,5354.25
267.730010986,5328.4
268.030517578,5247.65
268.330993652,5204.95
268.631439209,5170.575
268.931915283,5138.2
269.232299805,5095.075
269.532745361,5049.975
269.8331604,5016.55
270.133544922,4971.825
270.433929443,4961.075
270.734313965,4934.375
271.034637451,4939.075
271.334991455,4929.0
271.635314941,4929.825
271.935638428,4923.55
272.235931396,4944.625
272.536254883,4973.6
272.836486816,4995.3
273.136749268,5043.125
273.437011719,5128.45
273.737213135,5199.725
274.037445068,5243.925
274.337677002,5319.25
274.6378479,5376.1
274.938049316,5495.6
275.238220215,5555.475
275.538360596,5647.35
275.838500977,5676.475
276.138641357,5814.2
276.438751221,5850.35
276.738830566,5921.1
277.03894043,5988.65
277.338989258,6060.175
277.639038086,6111.85
277.939056396,6159.625
278.239105225,6206.45
278.539093018,6251.375
278.839141846,6273.775
279.139129639,6341.725
279.439086914,6390.25
279.739044189,6433.35
280.039001465,6473.7
280.338928223,6513.425
280.63885498,6540.1
280.938781738,6596.1
281.238647461,6604.125
281.538513184,6600.325
281.838409424,6619.775
282.138244629,6668.05
282.438079834,6669.625
282.737945557,6678.175
283.037719727,6688.6
283.337524414,6700.825
283.637298584,6711.6
283.937072754,6709.375
284.236816406,6713.6
284.536560059,6705.225
284.836303711,6701.725
285.136016846,6758.475
285.43572998,6746.55
285.735412598,6717.225
286.035064697,6728.575
286.334747314,6728.925
286.634368896,6749.925
286.933990479,6696.725
287.233642578,6628.1
287.533203125,6630.15
287.832824707,6579.45
288.132385254,6503.125
288.431945801,6392.325
288.731506348,6259.325
289.031036377,6124.1
289.330566406,6020.4
289.630065918,6034.75
289.92956543,5966.35
290.229034424,6068.425
290.528503418,6198.925
290.827941895,6334.825
291.127380371,6446.375
291.42678833,6526.85
291.726226807,6647.725
292.025604248,6671.025
292.324981689,6697.05
292.624359131,6713.85
292.923736572,6720.575
293.223052979,6713.5
293.522369385,6712.3
293.821685791,6675.125
294.12097168,6641.225
294.420257568,6618.725
294.719543457,6592.925
295.018768311,6620.025
295.318023682,6524.775
295.617248535,6496.175
295.916442871,6464.475
296.215667725,6382.325
296.514862061,6281.9
296.813995361,6105.325
297.11315918,5921.475
297.412322998,5829.575
297.711425781,5786.65
298.010559082,5937.775
298.309631348,6072.85
298.608734131,6280.6
298.907806396,6408.15
299.206848145,6546.475
299.505889893,6603.6
299.804901123,6658.85
300.103912354,6743.85
300.402954102,6790.6
300.701904297,6865.975
301.00088501,6912.425
301.299835205,6964.8
301.5987854,6954.0
301.897735596,7067.1
302.196624756,7083.9
302.495513916,7169.0
302.794403076,7186.8
303.093292236,7223.825
303.392120361,7295.05
303.690979004,7360.0
303.989837646,7372.875
304.288604736,7422.725
304.587402344,7432.5
304.886199951,7482.525
305.184967041,7469.4
305.483734131,7541.675
305.782501221,7564.175
306.081176758,7573.65
306.37991333,7597.15
306.678619385,7601.325
306.977294922,7615.7
307.275970459,7639.725
307.574645996,7646.975
307.873260498,7618.7
308.171875,7639.375
308.470489502,7629.325
308.769104004,7588.05
309.067687988,7590.4
309.366241455,7584.25
309.664794922,7546.875
309.963348389,7565.85
310.261871338,7556.15
310.560394287,7557.95
310.858856201,7553.225
311.157348633,7619.9
311.455810547,7603.4
311.754272461,7626.525
312.052703857,7656.175
312.351135254,7701.75
312.649536133,7706.8
312.947937012,7665.025
313.246307373,7733.9
313.544647217,7731.7
313.843017578,7654.125
314.141387939,7651.8
314.439697266,7677.3
314.738006592,7616.3
315.036315918,7551.4
315.334564209,7507.85
315.6328125,7441.175
315.931091309,7395.025
316.229309082,7289.475
316.527526855,7161.4
316.825744629,7152.3
317.123901367,7049.825
317.422088623,7028.475
317.720245361,7007.4
318.0184021,7027.25
318.316497803,7062.0
318.614654541,7105.275
318.912750244,7182.65
319.21081543,7160.775
319.50894165,7180.65
319.806945801,7190.25
320.104980469,7183.35
320.403045654,7192.45
320.701049805,7154.45
320.999023438,7163.6
321.297027588,7104.925
321.595001221,7088.6
321.892913818,7057.85
322.190887451,6999.475
322.488830566,6961.325
322.786712646,6933.475
323.084625244,6876.625
323.382507324,6843.975
323.680358887,6776.25
323.978210449,6708.325
324.276062012,6662.3
324.573852539,6626.875
324.871643066,6579.425
325.169464111,6528.575
325.467224121,6456.8
325.764984131,6422.625
326.062744141,6345.475
326.360473633,6291.3
326.658203125,6240.675
326.955871582,6185.3
327.253570557,6124.25
327.551239014,6063.3
327.848907471,6015.725
328.146514893,5938.25
328.444152832,5920.55
328.741790771,5855.05
329.039367676,5806.525
329.336914062,5778.775
329.634521484,5704.15
329.932067871,5673.4
330.229553223,5601.425
330.527160645,5570.55
330.824615479,5514.125
331.12210083,5447.025
331.419586182,5374.6
331.717041016,5305.125
332.014465332,5253.475
332.311920166,5226.55
332.609313965,5192.65
332.906707764,5183.1
333.204101562,5145.65
333.501495361,5170.625
333.798828125,5206.75
334.096160889,5238.025
334.39352417,5290.175
334.690795898,5339.15
334.988098145,5355.4
335.285400391,5412.125
335.582641602,5425.125
335.879882812,5446.325
336.177124023,5470.7
336.474334717,5540.925
336.77154541,5504.1
337.068725586,5546.55
337.365905762,5540.725
337.66305542,5546.3
337.960205078,5590.15
338.257324219,5595.15
338.554443359,5591.5
338.8515625,5613.6
339.148590088,5612.825
339.445648193,5616.175
339.742736816,5584.25
340.039764404,5598.025
340.336761475,5549.55
340.63381958,5527.825
340.930755615,5480.95
341.227722168,5440.2
341.524688721,5346.025
341.821624756,5324.25
342.118560791,5322.325
342.415496826,5411.575
342.712402344,5528.125
343.009246826,5653.1
343.306121826,5735.125
343.602966309,5780.35
343.899810791,5872.85
344.196624756,5947.7
344.493438721,5972.0
344.79019165,6004.925
345.086975098,6052.65
345.383758545,6076.8
345.680480957,6079.475
345.977203369,6063.375
346.273956299,6120.4
346.570617676,6113.45
346.86730957,6131.875
347.163970947,6127.075
347.460601807,6140.775
347.757232666,6156.1
348.053894043,6130.5
348.350463867,6076.35
348.647064209,6074.725
348.943634033,6059.25
349.24017334,6079.625
349.536712646,6035.225
349.833251953,6027.35
350.129760742,6011.925
350.426208496,6009.5
350.722747803,5961.275
351.019195557,5963.5
351.315612793,5939.725
351.612060547,5899.25
351.908508301,5877.15
352.204864502,5821.75
352.501281738,5769.075
352.797637939,5707.65
353.093963623,5638.775
353.390319824,5585.7
353.686645508,5528.125
353.982940674,5474.775
354.27923584,5431.975
354.575531006,5392.625
354.871765137,5376.425
355.167999268,5347.275
355.464233398,5360.85
355.760437012,5355.875
356.056640625,5351.6
356.352813721,5369.35
356.648956299,5351.5
356.945129395,5369.075
357.241271973,5386.225
357.537384033,5393.775
357.833496094,5357.175
358.129577637,5323.025
358.425628662,5324.35
358.721679688,5298.975
359.017730713,5289.125
359.313720703,5247.0
359.609710693,5200.375
359.905761719,5140.725
360.201721191,5142.825
360.497650146,5053.75
360.793609619,5070.225
361.089538574,5005.95
361.385437012,4935.1
361.681365967,4901.75
361.977233887,4856.325
362.273071289,4799.5
362.568908691,4711.275
362.864746094,4592.45
363.160552979,4491.675
363.456359863,4351.425
363.752166748,4231.025
364.047912598,4161.625
364.343658447,4118.2
364.639434814,4150.25
364.935119629,4185.025
365.230834961,4240.15
365.526550293,4269.55
365.822174072,4265.55
366.117858887,4286.55
366.413482666,4332.55
366.709075928,4348.275
367.004730225,4261.575
367.300292969,4275.6
367.595855713,4312.775
367.891448975,4207.95
368.186981201,4129.875
368.482513428,4085.025
368.778015137,4078.5
369.073547363,4047.425
369.36895752,4053.225
369.664428711,3968.375
369.95993042,3876.65
370.255310059,3829.675
370.550720215,3813.75
370.846160889,3781.825
371.14151001,3756.975
371.436859131,3725.0
371.73223877,3713.7
372.027557373,3682.3
372.322875977,3621.525
372.618164062,3622.5
372.913482666,3567.75
373.208709717,3543.575
373.503967285,3512.075
373.799194336,3480.75
374.094421387,3469.2
374.389648438,3438.225
374.684844971,3436.175
374.979980469,3474.55
375.275146484,3495.9
375.570281982,3499.15
375.865386963,3517.85
376.160522461,3461.075
376.455596924,3473.525
376.750640869,3541.75
377.045715332,3571.875
377.340759277,3594.275
377.635772705,3643.65
377.93081665,3665.55
378.225769043,3730.425
378.520751953,3790.725
378.815734863,3759.525
379.110656738,3884.5
379.405548096,4023.35
379.700500488,3894.95
379.995391846,3726.475
380.290252686,3761.55
380.585083008,3860.725
380.879974365,3890.8
381.17477417,3802.625
381.469543457,3763.15
381.764404297,3740.975
382.059143066,3781.625
382.353912354,3868.95
382.648651123,3940.025
382.943389893,3922.125
383.238067627,3770.25
383.532775879,3772.75
383.827484131,3742.95
384.12210083,3714.55
384.416778564,3689.625
384.711425781,3592.55
385.006011963,3621.925
385.300628662,3604.275
385.595184326,3673.975
385.88973999,3757.275
386.184295654,3835.825
386.478820801,3924.575
386.77331543,4006.15
387.067840576,4091.525
387.362335205,4154.225
387.656768799,4235.725
387.951202393,4272.625
388.245635986,4337.275
388.540039062,4385.55
388.834472656,4464.15
389.128875732,4374.35
389.423187256,4145.5
389.717559814,4127.55
390.011871338,4201.625
390.306182861,4243.875
390.600463867,4243.55
390.894775391,4307.825
391.189025879,4352.9
391.48324585,4337.475
391.777526855,4384.1
392.071685791,4567.525
392.365875244,4655.75
392.660064697,4699.05
392.95425415,5013.7
393.248382568,4998.225
393.542510986,4584.55
393.836608887,4419.15
394.130706787,4429.975
394.424804688,4382.45
394.71887207,4472.95
395.012878418,4478.575
395.306915283,4376.325
395.600921631,4304.725
395.894927979,4270.7
396.188903809,4313.35
396.482879639,4328.675
396.776794434,4505.075
397.070739746,4475.95
397.364654541,4508.8
397.658538818,4832.375
397.952423096,4855.325
398.246307373,4838.875
398.540100098,5299.775
398.833953857,5191.275
399.127746582,4768.05
399.421508789,4770.325
399.715301514,4729.975
400.009063721,4634.2
400.30279541,4493.65
400.596496582,4422.9
400.890258789,4592.45
401.183929443,4650.65
401.47756958,4560.55
401.771240234,4343.975
402.064880371,4342.325
402.35848999,4387.775
402.652130127,4309.625
402.945678711,4372.0
403.239257812,4326.375
403.532775879,4280.4
403.82635498,4312.625
404.119842529,4239.85
404.413360596,4225.125
404.706848145,4299.825
405.000274658,4215.1
405.293762207,4281.85
405.587188721,4320.075
405.880584717,4212.4
406.17401123,4036.55
406.467407227,3863.25
406.760742188,3880.775
407.054107666,3892.075
407.347442627,3829.7
407.640716553,3816.3
407.934051514,3856.55
408.227325439,3926.475
408.520568848,4128.425
408.813842773,4207.775
409.107086182,4035.5
409.400238037,3985.275
409.693450928,3913.85
409.986633301,4026.825
410.279754639,3941.975
410.572875977,3691.125
410.86605835,3617.175
411.159118652,3629.85
411.452209473,3643.45
411.745330811,3539.875
412.038360596,3449.65
412.331390381,3482.95
412.624420166,3523.05
412.917388916,3434.775
413.210388184,3275.825
413.503387451,3262.025
413.796295166,3160.8
414.089233398,3014.925
414.382141113,2935.925
414.675048828,2924.475
414.967926025,2953.625
415.260803223,2901.625
415.55368042,2914.075
415.846466064,2911.15
416.139282227,2970.425
416.432098389,3071.575
416.724853516,3076.4
417.017608643,3019.575
417.31036377,3032.05
417.603088379,3150.375
417.895782471,3105.025
418.188476562,3089.05
418.481140137,3151.25
418.773803711,3207.1
419.066436768,3177.375
419.359039307,3244.525
419.651641846,3234.975
419.944244385,3240.175
420.236816406,3206.825
420.529327393,3400.6
420.821899414,3476.4
421.114379883,3384.075
421.406860352,3627.4
421.699371338,3835.1
421.991821289,3789.2
422.284240723,3599.525
422.576721191,3475.05
422.869110107,3383.65
423.161468506,3316.1
423.453857422,3364.9
423.74621582,3254.575
424.038543701,3136.625
424.330871582,3109.1
424.623168945,3045.35
424.915435791,3163.425
425.207702637,3134.125
425.499969482,3085.875
425.792205811,3035.325
426.084411621,2822.675
426.376617432,2884.95
426.668762207,2935.0
426.9609375,2824.975
427.253082275,2939.125
427.545196533,3308.2
427.837310791,3058.8
428.129425049,2803.4
428.421447754,3000.325
428.713531494,3001.375
429.005554199,2991.0
429.297576904,2992.1
429.589599609,3385.275
429.881561279,3659.95
430.173522949,3472.675
430.465484619,3424.375
430.757415771,3497.25
431.049316406,3290.225
431.341186523,3062.5
431.633117676,2976.125
431.924957275,2707.075
432.21673584,2627.7
432.508636475,2761.05
432.800415039,2775.375
433.092163086,2674.325
433.383972168,2647.0
433.675689697,3292.125
433.967437744,3721.7
434.259155273,2861.125
434.550872803,2589.975
434.842498779,2648.575
435.134185791,2755.475
435.425842285,2767.15
435.717437744,2689.425
436.009063721,2521.85
436.30065918,2664.85
436.592224121,2961.725
436.883758545,2788.1
437.175323486,2559.1
437.466827393,2534.45
437.758331299,2544.825
438.049804688,2564.875
438.341247559,2619.55
438.63269043,2689.75
438.924163818,2683.375
439.215515137,2644.95
439.50692749,2557.525
439.798309326,2555.6
440.089660645,2574.15
440.380981445,2485.425
440.672332764,2491.825
440.963623047,2733.35
441.254882812,3129.525
441.546173096,3296.35
441.837402344,3072.925
442.128631592,2909.4
442.41986084,2886.725
442.711029053,2771.4
443.002197266,2837.9
443.293365479,2985.5
443.584503174,3119.7
443.875610352,3096.625
444.166717529,2861.025
444.457794189,2891.525
444.748840332,2899.2
445.039916992,2856.325
445.330932617,2935.95
445.621948242,2786.85
445.912963867,2617.925
446.203918457,2830.425
446.494812012,3029.55
446.785827637,2864.45
447.076721191,2692.525
447.367584229,2663.5
447.658447266,2654.05
447.949371338,2689.775
448.24017334,2587.925
448.530975342,2533.675
448.821838379,2668.425
449.112579346,2738.275
449.40335083,2681.15
449.694152832,2707.075
449.984863281,2717.35
450.27557373,2648.525
450.56628418,2717.925
450.856933594,2721.075
451.147583008,2581.075
451.438262939,2492.75
451.728881836,2662.875
452.019470215,2749.25
452.310089111,2576.3
452.600646973,2591.375
452.891174316,2630.7
453.181732178,2485.825
453.472229004,2370.75
453.762695312,2471.7
454.053222656,2497.35
454.343658447,2371.85
454.634063721,2333.075
454.924530029,2468.625
455.214935303,2602.1
455.505279541,2669.6
455.795715332,2537.925
456.086029053,2372.9
456.376312256,2344.275
456.666687012,2379.375
456.956939697,2471.2
457.247192383,2485.875
457.537445068,2540.25
457.827728271,2707.825
458.117919922,2649.35
458.408081055,2568.325
458.698303223,2732.1
458.988433838,2669.6
459.278564453,2514.5
459.568725586,2769.875
459.858825684,2868.775
460.148864746,2598.85
460.438995361,2546.325
460.729034424,2603.15
461.019042969,2608.525
461.309082031,2800.925
461.599060059,2682.55
461.889007568,2277.225
462.179016113,2115.6
462.468933105,2323.6
462.75881958,2439.075
463.048736572,2189.8
463.338592529,2425.8
463.628448486,2748.0
463.918365479,2476.525
464.2081604,2640.025
464.497924805,2612.625
464.787780762,2709.775
465.077514648,2994.375
465.367218018,2647.45
465.657012939,2834.725
465.946685791,3194.625
466.236358643,2844.425
466.526092529,2358.05
466.815734863,2348.05
467.105316162,2285.375
467.394927979,2311.825
467.684570312,2197.75
467.974121094,2281.95
468.263671875,2381.95
468.553222656,2181.425
468.842773438,2101.95
469.132232666,1988.45
469.42175293,2016.7
469.711212158,1992.8
470.000640869,1878.225
470.290100098,1925.975
470.579498291,1973.525
470.868835449,1975.275
471.158294678,1924.0
471.447601318,1915.75
471.736907959,1971.525
472.026275635,2031.05
472.315551758,2012.95
472.604797363,2016.875
472.894104004,2141.125
473.183319092,2211.925
473.47253418,2214.8
473.761779785,2213.775
474.05090332,2150.8
474.340087891,2106.125
474.629241943,2050.275
474.918365479,2196.225
475.207427979,2436.2
475.496551514,2454.9
475.785614014,2223.225
476.074645996,2043.3
476.363708496,2121.975
476.652679443,2255.625
476.941650391,2090.425
477.230682373,1961.75
477.519622803,1952.075
477.808502197,2108.075
478.097412109,2328.6
478.386352539,2286.2
478.675201416,2054.85
478.964050293,1962.55
479.25289917,2121.725
479.541717529,2178.775
479.830474854,2047.125
480.11932373,2346.1
480.408050537,2510.725
480.696777344,2161.375
480.985534668,2039.85
481.274200439,2127.425
481.562866211,2348.925
481.851593018,2372.625
482.140197754,2305.95
482.428833008,2165.95
482.717468262,1978.675
483.006011963,2031.0
483.294586182,2131.275
483.5831604,2153.375
483.871673584,2036.9
484.16015625,2156.4
484.448699951,2368.4
484.7371521,2413.575
485.02557373,2413.575
485.314025879,2175.1
485.602416992,3383.525
485.890777588,12010.025
486.179199219,10689.525
486.467559814,2865.525
486.755859375,2067.85
487.044219971,2428.95
487.332519531,2581.1
487.620758057,2221.75
487.908966064,1991.55
488.197265625,1808.175
488.485473633,1732.525
488.773651123,1820.425
489.061859131,1825.8
489.350006104,1774.65
489.638122559,1723.475
489.926300049,1751.6
490.214355469,1703.2
490.502441406,1647.475
490.790527344,1598.125
491.078552246,1750.425
491.366546631,1760.075
491.654602051,1549.55
491.942565918,1621.9
492.230499268,1661.25
492.518493652,1617.075
492.806396484,1643.1
493.094268799,1565.825
493.382202148,1612.625
493.670074463,1710.575
493.957885742,1575.1
494.245727539,1570.35
494.533508301,1708.925
494.821289062,1614.425
495.109100342,1475.875
495.396850586,1432.525
495.684539795,1394.275
495.972290039,1589.9
496.25994873,1890.75
496.547607422,1886.9
496.835296631,1724.55
497.122894287,1443.625
497.410522461,1383.525
497.6980896,1379.15
497.985687256,1359.425
498.273223877,1439.075
498.560760498,1500.525
498.848266602,1509.875
499.135772705,1489.55
499.423217773,1535.075
499.710693359,1619.7
499.998138428,1562.475
500.285522461,1411.275
500.572937012,1348.975
500.860290527,1407.05
501.147644043,1491.425
501.434997559,1684.525
501.722290039,1573.9
502.00958252,1363.0
502.296875,1599.775
502.584106445,1575.525
502.871337891,1425.075
503.158599854,1497.8
503.445770264,1570.025
503.732910156,1536.575
504.020141602,1386.55
504.307220459,1361.15
504.594329834,1386.8
504.881469727,1342.375
505.168518066,1401.5
505.455535889,1457.725
505.742614746,1341.55
506.029632568,1283.825
506.316589355,1454.125
506.603637695,1515.05
506.890563965,1352.975
507.177459717,1209.975
507.464385986,1135.4
507.751312256,1336.2
508.038146973,1412.9
508.325012207,1276.625
508.611877441,1336.2
508.898681641,1347.525
509.185424805,1205.025
509.472259521,1168.025
509.759002686,1241.2
510.045715332,1273.05
510.332458496,1230.05
510.619140625,1271.775
510.905761719,1188.175
511.192504883,1187.575
511.479095459,1223.2
511.765686035,1185.725
512.052307129,1121.275
512.338928223,1066.925
512.625427246,1123.4
512.91204834,1167.1
513.198486328,1153.25
513.484985352,1123.8
513.77142334,1066.35
514.057922363,1101.875
514.344299316,1095.775
514.63079834,1058.825
514.917175293,1049.4
515.203552246,966.725
515.489868164,949.65
515.776245117,1047.775
516.0625,1092.575
516.348815918,1014.725
516.635070801,1030.525
516.921325684,1083.375
517.207580566,1029.775
517.493774414,947.275
517.779968262,961.575
518.066101074,991.85
518.352294922,954.05
518.638366699,959.025
518.924499512,1025.325
519.210632324,1093.725
519.496643066,1064.825
519.782714844,973.15
520.068786621,948.45
520.354736328,908.625
520.640686035,872.325
520.926757812,918.475
521.212646484,988.175
521.498535156,990.35
521.784484863,948.775
522.0703125,884.925
522.356262207,905.3
522.642089844,968.025
522.927856445,958.8
523.213684082,953.6
523.499511719,951.4
523.78527832,975.45
524.070983887,1025.7
524.356750488,998.725
524.64239502,970.475
524.928039551,960.55
525.213806152,984.175
525.499389648,972.725
525.784973145,991.3
526.070617676,1034.525
526.356140137,1013.625
526.641723633,1007.15
526.927307129,1078.425
527.212768555,1071.275
527.498291016,1054.3
527.783752441,1050.575
528.069213867,1035.35
528.354675293,1056.15
528.640014648,1201.55
528.925476074,1259.45
529.21081543,1186.725
529.496154785,1176.45
529.781555176,1139.925
530.066833496,1159.55
530.352050781,1166.25
530.637390137,1162.625
530.922607422,1166.875
531.207824707,1153.95
531.493041992,1152.05
531.778198242,1207.2
532.063354492,1188.45
532.348571777,1140.35
532.633666992,1154.15
532.918762207,1229.15
533.203857422,1303.95
533.488891602,1320.2
533.773925781,1278.7
534.059020996,1253.05
534.343933105,1280.275
534.628967285,1262.45
534.91394043,1268.775
535.198852539,1288.6
535.483703613,1262.825
535.768676758,1212.85
536.053527832,1224.675
536.338317871,1179.575
536.62322998,1125.05
536.90802002,1103.55
537.192810059,1127.775
537.477539062,1193.6
537.762329102,1220.325
538.047058105,1259.325
538.331726074,1297.45
538.616455078,1284.4
538.901123047,1258.2
539.18572998,1300.6
539.470397949,1298.15
539.755004883,1292.85
540.039550781,1267.3
540.32409668,1216.15
540.608703613,1267.875
540.893188477,1346.45
541.17767334,1368.975
541.462158203,1370.825
541.746643066,1323.575
542.031066895,1358.025
542.315429688,1399.475
542.59979248,1395.5
542.884216309,1378.55
543.168579102,1370.475
543.452941895,1382.4
543.737243652,1429.75
544.021484375,1469.325
544.305725098,1453.45
544.590026855,1448.35
544.874267578,1448.725
545.158447266,1522.525
545.442626953,1449.5
545.726806641,1347.25
546.010925293,1385.8
546.29510498,1409.95
546.579162598,1399.9
546.863220215,1434.075
547.147277832,1494.85
547.431335449,1569.875
547.715332031,1620.0
547.999328613,1705.475
548.283325195,1720.7
548.567260742,1599.55
548.851135254,1584.075
549.135070801,1541.725
549.419006348,1460.65
549.702819824,1550.75
549.986755371,1621.25
550.270507812,1584.2
550.554321289,1637.15
550.83807373,1643.9
551.121826172,1595.35
551.405517578,1618.925
551.689331055,1715.8
551.973022461,1922.525
552.256652832,1966.925
552.540344238,1884.1
552.823974609,1864.1
553.107543945,1851.425
553.391174316,1907.45
553.674743652,1948.225
553.958251953,1969.725
554.241821289,1977.875
554.525268555,1923.875
554.808776855,1919.6
555.092285156,2095.1
555.375671387,2157.175
555.659057617,2154.15
555.942504883,2186.875
556.225891113,2227.575
556.509216309,2186.95
556.792541504,2096.8
557.075866699,2173.9
557.359130859,2201.85
557.64239502,2217.425
557.92565918,2272.65
558.208862305,2264.975
558.49206543,2194.75
558.77532959,2223.5
559.058410645,2268.175
559.341552734,2247.0
559.624694824,2297.6
559.907775879,2352.875
560.190856934,2465.6
560.473937988,2478.425
560.756896973,2492.05
561.039978027,2530.925
561.322937012,2487.125
561.605895996,2481.0
561.88885498,2461.55
562.171813965,2463.225
562.454650879,2448.35
562.737548828,2483.45
563.020446777,2541.875
563.303283691,2558.125
563.58605957,2590.2
563.868896484,2617.225
564.151672363,2657.85
564.434387207,2667.325
564.717163086,2659.075
564.99987793,2695.8
565.282531738,2744.35
565.565185547,2699.75
565.847839355,2702.3
566.130432129,2811.55
566.413085938,2788.05
566.695678711,2792.275
566.978149414,2904.325
567.260681152,3036.275
567.543273926,3098.4
567.825744629,3016.7
568.108154297,3060.975
568.390686035,3161.75
568.673095703,3279.4
568.955505371,3307.7
569.237854004,3340.8
569.520202637,3604.275
569.802490234,3783.6
570.084838867,3781.55
570.367126465,3607.075
570.649414062,3630.525
570.93170166,3949.95
571.213928223,4026.75
571.496154785,3778.125
571.778381348,3997.975
572.06048584,4220.75
572.342590332,3823.15
572.624755859,3486.25
572.906860352,3565.125
573.188903809,4180.125
573.470947266,4408.125
573.752990723,4184.825
574.03503418,4280.325
574.317016602,4645.8
574.598937988,4444.65
574.88092041,4336.05
575.162841797,4504.925
575.444763184,4149.95
575.726623535,3938.575
576.008483887,3954.45
576.290344238,4321.0
576.572143555,4508.0
576.853881836,4570.075
577.135681152,4481.55
577.417419434,4543.875
577.699157715,5329.95
577.980895996,5485.725
578.262573242,4890.9
578.544128418,4437.525
578.825866699,4399.775
579.107421875,4101.075
579.388977051,4279.675
579.670593262,4616.025
579.952148438,4486.95
580.233642578,4590.85
580.515197754,4704.125
580.796691895,4372.625
581.078125,4578.775
581.359619141,5960.225
581.640991211,6034.8
581.922363281,5190.675
582.203796387,5253.675
582.485107422,4917.85
582.766418457,4555.775
583.047790527,4409.525
583.329040527,4322.25
583.610290527,4192.325
583.891540527,4293.875
584.172790527,4604.925
584.453918457,4602.625
584.735107422,4674.275
585.016235352,5064.3
585.297363281,5053.975
585.578552246,4859.6
585.859619141,4808.3
586.140625,4587.025
586.421630859,4481.625
586.702697754,4509.4
586.983642578,4720.475
587.264648438,4874.275
587.545654297,4828.4
587.826477051,4796.025
588.107421875,4601.25
588.388305664,4648.45
588.669189453,4733.75
588.950012207,4589.85
589.230834961,4506.55
589.511657715,4572.0
589.792358398,4664.6
590.073120117,4668.3
590.353881836,4638.375
590.63458252,4664.5
590.915283203,4632.75
591.195922852,4625.625
591.4765625,4649.45
591.757202148,4708.025
592.037780762,4687.15
592.31829834,4699.65
592.598937988,4891.475
592.879394531,5039.55
593.159912109,4951.75
593.440429688,4915.4
593.720825195,4890.1
594.001281738,4892.1
594.281677246,4798.475
594.562072754,4803.1
594.842407227,4898.825
595.122802734,4939.05
595.403137207,4942.4
595.683410645,4907.95
595.963623047,4887.8
596.243896484,4857.55
596.524169922,4853.425
596.804382324,4881.6
597.084533691,4909.25
597.364746094,4940.2
597.644836426,4961.55
597.924987793,4951.275
598.205078125,4921.025
598.485107422,4959.75
598.765197754,5061.9
599.045227051,5100.3
599.325195312,5015.25
599.605224609,4980.775
599.885192871,5028.7
600.165100098,5068.85
600.445007324,5012.875
600.724914551,4992.8
601.004760742,5033.025
601.284667969,5082.775
601.56451416,5043.95
601.844238281,5044.525
602.124084473,5040.15
602.403808594,5051.35
602.683532715,5083.025
602.963256836,5054.5
603.242919922,5103.5
603.522583008,5126.025
603.802246094,5127.8
604.081848145,5077.125
604.36138916,5075.375
604.641052246,5089.75
604.920532227,5069.575
605.200073242,5107.825
605.479614258,5147.8
605.759094238,5176.625
606.038574219,5174.65
606.317932129,5110.2
606.597412109,5109.0
606.87677002,5123.65
607.15612793,5174.225
607.435546875,5171.95
607.714782715,5160.45
607.99407959,5149.2
608.273376465,5129.425
608.552612305,5175.0
608.831848145,5155.15
609.111083984,5181.75
609.390258789,5152.6
609.669433594,5131.8
609.948608398,5208.45
610.227722168,5203.775
610.506713867,5140.2
610.785888672,5159.25
611.064880371,5142.1
611.34387207,5167.45
611.622924805,5169.3
611.901916504,5162.5
612.180847168,5129.825
612.459777832,5133.0
612.738647461,5139.975
613.01751709,5101.8
613.296447754,5064.875
613.575317383,5015.6
613.854064941,4984.0
614.132873535,4921.825
614.411621094,4867.775
614.690368652,4838.95
614.969177246,4785.2
615.247802734,4717.075
615.526489258,4700.6
615.805175781,4591.2
616.08380127,4485.85
616.362365723,4409.425
616.640991211,4358.4
616.919555664,4321.9
617.198059082,4431.325
617.4765625,4677.5
617.755126953,4826.15
618.033569336,4842.5
618.311950684,4850.825
618.590454102,4829.0
618.868774414,4806.375
619.147155762,4823.625
619.425598145,4806.325
619.703857422,4808.575
619.982177734,4845.5
620.260498047,4844.8
620.538757324,4798.475
620.816955566,4797.75
621.095214844,4765.475
621.373413086,4770.85
621.651550293,4833.9
621.929748535,4848.1
622.207824707,4831.925
622.485900879,4836.975
622.764038086,4843.3
623.042053223,4876.3
623.320007324,4918.25
623.598083496,4891.55
623.876037598,4883.3
624.153991699,4907.675
624.432006836,4930.325
624.709838867,4935.0
624.987731934,4929.075
625.265563965,4930.3
625.543395996,4931.125
625.821228027,5003.65
626.098999023,4969.525
626.376831055,5049.975
626.654541016,5028.75
626.932250977,5085.75
627.209960938,5119.375
627.487670898,5131.775
627.765319824,5165.7
628.04296875,5154.375
628.320495605,5179.325
628.598083496,5178.625
628.875671387,5192.15
629.153259277,5233.925
629.430725098,5298.675
629.708251953,5279.2
629.985656738,5307.8
630.263122559,5365.425
630.540588379,5354.725
630.817932129,5399.25
631.095275879,5428.95
631.372680664,5458.175
631.649963379,5484.625
631.927246094,5546.925
632.204589844,5550.975
632.481811523,5618.5
632.759033203,5698.7
633.036254883,5721.825
633.313415527,5800.8
633.590576172,5853.275
633.867736816,5939.6
634.144836426,5978.3
634.421875,6049.4
634.698913574,6110.175
634.976013184,6141.875
635.252990723,6224.9
635.529968262,6254.3
635.807006836,6328.15
636.08392334,6314.225
636.360839844,6212.05
636.637756348,6126.975
636.914611816,6108.35
637.191467285,6068.325
637.468261719,6157.75
637.745056152,6096.775
638.021789551,6135.475
638.298583984,6157.5
638.575317383,6198.275
638.851989746,6193.875
639.12878418,6182.0
639.405395508,6185.4
639.682006836,6239.925
639.958618164,6243.925
640.235229492,6201.4
640.511779785,6252.475
640.788330078,6226.875
641.064880371,6247.225
641.341308594,6220.2
641.617797852,6214.125
641.894226074,6223.825
642.170654297,6251.275
642.44708252,6250.9
642.723388672,6235.825
642.999755859,6236.125
643.276123047,6245.825
643.552429199,6221.575
643.828674316,6222.725
644.104919434,6184.55
644.381164551,6204.45
644.657348633,6217.25
644.933532715,6172.15
645.209716797,6188.25
645.485839844,6181.575
645.761901855,6180.7
646.038024902,6197.625
646.314086914,6218.4
646.590087891,6204.45
646.866149902,6209.45
647.142150879,6170.275
647.41809082,6150.275
647.694030762,6161.65
647.969970703,6132.35
648.245788574,6175.925
648.521728516,6149.975
648.797546387,6158.9
649.073303223,6179.2
649.349182129,6145.225
649.624938965,6135.95
649.900634766,6131.45
650.176391602,6147.825
650.452087402,6138.575
650.727783203,6116.475
651.003479004,6118.3
651.279052734,6098.7
651.554626465,6088.875
651.83026123,6105.85
652.105773926,6138.375
652.381286621,6091.875
652.656860352,6106.55
652.932312012,6092.175
653.207763672,6093.575
653.483215332,6115.225
653.758605957,6128.9
654.033935547,6144.475
654.309326172,6139.3
654.584716797,6155.625
654.859985352,6126.0
655.135253906,6155.125
655.410583496,6147.1
655.685791016,7124.3
655.9609375,11082.25
656.236206055,10814.15
656.511291504,7176.025
656.786437988,6278.775
657.061645508,6190.775
657.336669922,6180.625
657.611694336,6218.7
657.886779785,6231.15
658.161804199,6246.175
658.436828613,6212.45
658.711791992,6231.8
658.986755371,6232.9
659.261657715,6226.15
659.536621094,6253.225
659.811401367,6242.475
660.086303711,6246.85
660.36114502,6269.475
660.635864258,6266.825
660.910644531,6293.725
661.185424805,6297.375
661.460205078,6308.125
661.734863281,6326.3
662.009521484,6305.625
662.284179688,6315.9
662.558776855,6342.725
662.833435059,6375.275
663.108032227,6370.325
663.382568359,6354.75
663.657043457,6404.525
663.93157959,6403.175
664.206054688,6386.15
664.48046875,6432.75
664.755004883,6430.05
665.02935791,6458.625
665.303710938,6496.15
665.578125,6508.375
665.852416992,6492.825
666.126708984,6479.0
666.401062012,6497.25
666.675292969,6542.65
666.949462891,6545.725
667.223754883,6543.0
667.497924805,6576.15
667.772094727,6578.675
668.046264648,6536.45
668.3203125,6601.075
668.594421387,6611.325
668.868469238,6626.15
669.14251709,6632.625
669.416503906,6646.775
669.690551758,6647.15
669.964477539,6662.25
670.23840332,6657.55
670.512329102,6677.525
670.786254883,6619.675
671.060058594,6693.975
671.333984375,6696.95
671.607788086,6699.075
671.881530762,6720.8
672.155334473,6744.55
672.429077148,6752.925
672.702758789,6790.125
672.97644043,6737.925
673.25012207,6746.7
673.523742676,6722.65
673.797302246,6747.05
674.070922852,6801.9
674.344482422,6811.425
674.618041992,6794.3
674.891601562,6786.95
675.165100098,6796.8
675.438476562,6791.9
675.711975098,6822.7
675.985412598,6801.075
676.258789062,6791.825
676.532165527,6812.075
676.805480957,6824.425
677.078796387,6846.225
677.352111816,6841.225
677.625366211,6845.95
677.898620605,6818.425
678.171875,6872.95
678.445007324,6846.5
678.718200684,6866.375
678.991394043,6853.375
679.264404297,6863.275
679.537536621,6896.825
679.81060791,6877.175
680.083679199,6882.2
680.356689453,6881.475
680.629699707,6870.5
680.902648926,6866.05
681.175598145,6929.425
681.448547363,6932.85
681.721435547,6888.7
681.99420166,6881.225
682.267150879,6870.225
682.539916992,6945.775
682.812744141,6915.3
683.085510254,6875.45
683.358215332,6909.75
683.63092041,6873.925
683.903625488,6891.4
684.176330566,6874.975
684.448913574,6856.7
684.721557617,6854.1
684.99420166,6903.425
685.266662598,6875.625
685.539245605,6885.65
685.811767578,6948.05
686.084289551,6930.375
686.356689453,6943.25
686.629150391,6970.875
686.901550293,6978.2
687.17401123,6954.85
687.446350098,6977.85
687.718688965,6990.5
687.990966797,7024.25
688.263305664,7011.725
688.535522461,7001.475
688.807739258,6996.425
689.079956055,7019.975
689.352172852,7047.925
689.624328613,7028.425
689.896484375,7045.05
690.168518066,7019.475
690.440612793,7037.975
690.71270752,7033.45
690.984741211,7061.7
691.256713867,7063.075
691.528747559,7058.0
691.800720215,7064.425
692.072631836,7070.2
692.344543457,7105.7
692.616394043,7080.075
692.888244629,7088.225
693.160095215,7119.85
693.431945801,7119.125
693.703674316,7088.8
693.975463867,7063.3
694.247131348,7113.775
694.518859863,7104.275
694.790588379,7131.375
695.062255859,7137.35
695.33380127,7081.2
695.60546875,7087.85
695.87701416,7095.625
696.148498535,7095.55
696.42010498,7124.6
696.691589355,7134.25
696.96307373,7145.775
697.234558105,7142.85
697.50592041,7144.3
697.777282715,7151.475
698.048706055,7157.425
698.320068359,7179.35
698.591308594,7161.65
698.862670898,7163.675
699.133972168,7178.8
699.405151367,7151.25
699.676391602,7188.975
699.947570801,7150.2
700.21875,7149.95
700.489868164,7158.225
700.761047363,7164.475
701.032104492,7198.625
701.303100586,7128.275
701.57421875,7186.925
701.845214844,7158.175
702.116149902,7142.9
702.387207031,7158.25
702.65814209,7152.925
702.928955078,7162.125
703.199951172,7117.7
703.47076416,7118.5
703.741577148,7100.75
704.012451172,7138.075
704.28314209,7117.35
704.553955078,7112.375
704.824707031,7133.45
705.095397949,7132.75
705.366027832,7138.95
705.63671875,7154.05
705.907348633,7110.15
706.17791748,7090.15
706.448486328,7125.6
706.719055176,7130.625
706.989562988,7133.125
707.260131836,7129.65
707.530517578,7120.3
707.800964355,7107.55
708.071411133,7079.175
708.341796875,7050.975
708.612182617,7052.0
708.882446289,7015.525
709.152893066,7020.65
709.423156738,7039.575
709.693359375,7011.175
709.963623047,7019.975
710.233825684,7023.8
710.503967285,6977.775
710.774169922,7004.675
711.044311523,6977.35
711.31439209,6964.775
711.584533691,6999.4
711.854553223,6975.2
712.124572754,6964.45
712.39465332,6931.35
712.664611816,6946.925
712.934509277,6946.775
713.204467773,6930.75
713.474365234,6925.125
713.74420166,6912.675
714.014099121,6918.575
714.283874512,6895.725
714.553710938,6886.4
714.823486328,6877.1
715.093200684,6856.825
715.362915039,6874.375
715.632629395,6836.25
715.902282715,6811.325
716.171875,6791.825
716.441589355,6793.2
716.711181641,6746.8
716.980712891,6774.55
717.250244141,6743.8
717.519775391,6750.975
717.78918457,6725.8
718.058654785,6745.675
718.328125,6762.1
718.597473145,6715.575
718.866882324,6687.325
719.136230469,6690.35
719.405578613,6681.25
719.674865723,6699.2
719.944152832,6654.375
720.213439941,6625.15
720.48260498,6668.075
720.75177002,6644.925
721.020996094,6646.8
721.290100098,6644.525
721.559204102,6593.35
721.828308105,6607.05
722.097351074,6603.05
722.366455078,6581.3
722.635437012,6555.125
722.904418945,6513.225
723.173400879,6551.15
723.442321777,6531.925
723.711181641,6480.15
723.980102539,6499.475
724.248962402,6491.925
724.51776123,6460.325
724.786560059,6489.6
725.055358887,6474.9
725.324035645,6436.425
725.592834473,6432.525
725.86151123,6374.625
726.130187988,6396.1
726.398803711,6346.525
726.667419434,6366.3
726.935974121,6336.25
727.204528809,6272.95
727.473083496,6297.975
727.741638184,6238.1
728.010070801,6208.325
728.278564453,6228.45
728.546936035,6187.875
728.815368652,6125.525
729.08380127,6076.15
729.352111816,6016.55
729.620361328,5953.175
729.88873291,5979.925
730.156982422,6026.6
730.425231934,5999.825
730.693481445,5992.375
730.961669922,6011.025
731.229797363,6041.2
731.49798584,6025.775
731.766113281,6044.975
732.034118652,6101.325
732.302246094,6125.9
732.570251465,6108.675
732.838256836,6111.95
733.106262207,6144.975
733.374145508,6174.175
733.642089844,6209.25
733.909973145,6199.075
734.177856445,6243.725
734.445678711,6285.925
734.713562012,6327.15
734.981323242,6307.95
735.249084473,6333.575
735.516845703,6455.8
735.784545898,6481.775
736.052185059,6492.3
736.319885254,6534.0
736.587524414,6550.15
736.855102539,6561.475
737.122619629,6634.875
737.390197754,6626.6
737.657714844,6714.05
737.925170898,6733.625
738.192749023,6809.075
738.460144043,6822.15
738.727539062,6834.425
738.994995117,6855.025
739.262329102,6927.45
739.529663086,6979.3
739.79699707,6972.0
740.06427002,7001.7
740.331481934,7030.375
740.598754883,7033.425
740.865905762,7043.175
741.133056641,7143.8
741.40032959,7127.25
741.667358398,7164.175
741.934448242,7176.375
742.201599121,7180.2
742.468566895,7220.625
742.735534668,7242.625
743.002563477,7259.375
743.26953125,7202.85
743.536437988,7229.275
743.803405762,7313.45
744.0703125,7257.875
744.337097168,7309.85
744.604003906,7223.45
744.870727539,7260.15
745.137512207,7272.4
745.40423584,7279.025
745.670959473,7233.275
745.93762207,7247.2
746.204284668,7243.375
746.470947266,7225.175
746.737548828,7211.375
747.004089355,7200.575
747.270751953,7213.825
747.53717041,7167.6
747.803710938,7126.125
748.070251465,7139.55
748.336608887,7107.0
748.603027344,7066.2
748.869445801,7058.875
749.135803223,7041.975
749.402099609,7036.9
749.668457031,7020.975
749.934753418,6976.375
750.20098877,6935.625
750.467224121,6948.5
750.733459473,6910.275
750.999572754,6867.2
751.26574707,6816.475
751.531860352,6806.125
751.797912598,6790.95
752.064025879,6735.45
752.330078125,6723.4
752.596069336,6697.975
752.862060547,6646.8
753.127990723,6637.3
753.393920898,6611.475
753.659912109,6563.95
753.925720215,6580.075
754.19152832,6540.75
754.457397461,6462.175
754.723144531,6430.075
754.988952637,6407.025
755.254699707,6417.1
755.520385742,6406.65
755.786071777,6374.4
756.051696777,6346.675
756.317382812,6296.225
756.582946777,6274.05
756.848510742,6279.175
757.114074707,6208.725
757.379577637,6218.0
757.645080566,6198.5
757.910583496,6201.475
758.175964355,6108.325
758.441345215,6105.525
758.706848145,6014.7
758.972106934,5996.95
759.237426758,5982.7
759.502807617,6010.45
759.768005371,5988.825
760.03326416,5959.525
760.298522949,5885.275
760.563659668,5877.1
760.828857422,5865.475
761.093994141,5870.775
761.359130859,5800.075
761.624206543,5764.475
761.889282227,5723.225
762.15423584,5700.725
762.419250488,5694.65
762.684265137,5666.6
762.949157715,5657.6
763.214050293,5636.3
763.479003906,5617.775
763.743835449,5565.05
764.008666992,5554.425
764.2734375,5535.275
764.538208008,5532.325
764.802978516,5568.125
765.067687988,5535.525
765.332397461,5514.15
765.597045898,5476.825
765.861694336,5448.975
766.126342773,5403.075
766.390930176,5381.575
766.655395508,5348.95
766.920043945,5330.6
767.184509277,5302.425
767.448974609,5289.3
767.713439941,5288.75
767.977783203,5240.3
768.2421875,5263.275
768.506591797,5224.775
768.770874023,5237.875
769.03515625,5187.7
769.299499512,5199.125
769.563720703,5193.55
769.827941895,5155.375
770.092163086,5154.75
770.356323242,5112.725
770.620483398,5110.15
770.88458252,5106.8
771.148681641,5081.525
771.412719727,5073.7
771.676757812,5054.5
771.940734863,5016.975
772.204711914,5000.2
772.468688965,4976.075
772.73260498,4962.575
772.996459961,4972.05
773.260314941,4399.1
773.524169922,615.0
773.787963867,136.675
774.051696777,122.975
774.315551758,118.775
774.579223633,118.775
774.842895508,118.775
775.106567383,120.4
775.370239258,117.275
775.633789062,122.525
775.897399902,126.675
776.160949707,117.975
776.424499512,121.775
776.687988281,125.05
776.951477051,125.4
777.214904785,117.35
777.47833252,121.75
