191.299911499,100.85
191.603515625,104.2
191.907119751,95.9
192.210693359,103.875
192.514251709,98.25
192.817810059,103.05
193.121368408,102.25
193.42489624,106.175
193.728408813,101.5
194.031936646,104.125
194.33543396,95.525
194.638916016,111.35
194.94241333,98.725
195.245880127,96.975
195.549331665,96.075
195.852767944,101.1
196.156204224,210.425
196.459625244,203.175
196.763015747,206.45
197.066436768,212.625
197.369812012,203.975
197.673187256,209.05
197.9765625,201.2
198.279922485,204.775
198.583251953,201.725
198.886581421,205.325
199.18989563,216.1
199.493209839,207.7
199.79649353,198.225
200.09979248,214.475
200.403076172,206.05
200.706314087,204.575
201.009567261,207.9
201.312820435,205.3
201.616027832,200.35
201.919235229,192.9
202.222457886,200.325
202.525634766,201.725
202.828826904,194.15
203.132003784,195.4
203.435150146,197.1
203.738296509,195.5
204.041412354,196.8
204.344558716,201.85
204.647659302,203.525
204.950759888,203.2
205.253845215,200.375
205.556930542,194.975
205.859985352,199.025
206.163024902,195.875
206.466079712,200.55
206.769104004,209.175
207.072113037,203.25
207.375137329,201.35
207.678131104,204.375
207.981109619,204.0
208.284088135,200.225
208.587036133,201.6
208.889984131,203.525
209.19291687,208.425
209.495849609,207.3
209.798751831,208.675
210.101654053,207.125
210.404556274,208.65
210.707427979,202.45
211.010269165,212.55
211.31312561,214.625
211.615982056,210.7
211.918807983,211.875
212.221618652,210.4
212.524429321,209.825
212.827224731,217.55
213.130004883,209.725
213.432769775,217.65
213.735534668,216.975
214.038269043,224.15
214.341003418,220.05
214.643737793,223.05
214.946456909,226.725
215.249145508,230.225
215.551834106,229.225
215.854507446,233.85
216.157165527,233.5
216.45980835,232.15
216.762451172,234.05
217.065078735,237.5
217.36769104,237.825
217.670303345,245.725
217.972885132,242.925
218.275466919,247.1
218.578048706,245.375
218.880599976,257.425
219.183120728,258.075
219.485656738,267.175
219.788192749,281.825
220.090682983,300.075
220.393188477,329.825
220.695663452,375.025
220.998138428,404.5
221.300582886,458.825
221.603042603,498.925
221.905487061,567.225
222.207901001,636.375
222.510299683,713.875
222.812728882,812.475
223.115097046,900.325
223.41746521,999.85
223.719848633,1101.95
224.022171021,1201.275
224.324508667,1319.775
224.626846313,1450.625
224.929168701,1567.525
225.231460571,1688.25
225.533737183,1804.0
225.836013794,1936.975
226.138290405,2057.3
226.440536499,2151.9
226.742767334,2264.65
227.044998169,2357.7
227.347213745,2473.75
227.649429321,2560.575
227.951629639,2652.15
228.253799438,2716.05
228.555953979,2785.775
228.858123779,2881.25
229.160263062,2940.8
229.462371826,3007.2
229.764511108,3046.9
230.066619873,3108.325
230.36869812,3157.925
230.670776367,3194.45
230.972854614,3278.225
231.274902344,3330.875
231.576950073,3414.3
231.878967285,3448.075
232.180999756,3536.075
232.48298645,3604.55
232.784988403,3647.75
233.086975098,3721.3
233.388946533,3775.275
233.69090271,3859.7
233.992858887,3927.05
234.294769287,3959.475
234.596694946,3996.15
234.898605347,4086.7
235.200500488,4124.3
235.502380371,4182.75
235.804244995,4204.55
236.106109619,4224.925
236.407958984,4272.05
236.709777832,4304.325
237.011581421,4357.675
237.313400269,4360.0
237.615203857,4388.85
237.916976929,4459.85
238.21875,4462.8
238.520507812,4484.6
238.822250366,4529.95
239.12399292,4540.8
239.425704956,4592.125
239.727401733,4580.625
240.02911377,4620.325
240.330780029,4615.45
240.632446289,4673.75
240.93409729,4679.45
241.23576355,4722.7
241.537384033,4754.5
241.839004517,4793.975
242.140594482,4840.75
242.442199707,4885.15
242.743774414,4929.625
243.045333862,5005.15
243.346923828,5008.525
243.648452759,5073.85
243.949966431,5113.7
244.251495361,5163.575
244.552993774,5214.975
244.854492188,5209.85
245.155975342,5270.8
245.457443237,5345.1
245.758880615,5346.0
246.060333252,5390.975
246.36177063,5416.475
246.66317749,5439.525
246.964569092,5473.175
247.265945435,5527.375
247.567337036,5537.125
247.86869812,5601.8
248.170059204,5675.45
248.471389771,5724.175
248.772705078,5789.5
249.074035645,5865.25
249.375335693,5929.7
249.676620483,6021.5
249.977890015,6100.825
250.279159546,6249.575
250.58039856,6309.4
250.881637573,6422.55
251.182876587,6507.475
251.484069824,6674.3
251.785263062,6755.825
252.086456299,6908.225
252.387619019,6988.9
252.688781738,7084.675
252.989929199,7212.375
253.291061401,7326.375
253.592178345,7480.7
253.893280029,7554.7
254.194366455,7678.1
254.49546814,7718.725
254.796524048,7775.525
255.097579956,7893.65
255.398620605,7914.3
255.699645996,8043.9
256.000640869,8042.325
256.30166626,8119.75
256.602661133,8195.675
256.903656006,8154.075
257.204589844,8192.7
257.505523682,8190.725
257.80645752,8225.3
258.107391357,8220.35
258.408294678,8173.375
258.709228516,8166.7
259.010070801,8114.2
259.310943604,8117.25
259.611846924,8037.05
259.912658691,7991.975
260.213500977,7916.325
260.514343262,7845.075
260.815124512,7778.075
261.115936279,7732.125
261.416717529,7717.925
261.717468262,7648.0
262.018218994,7591.325
262.318969727,7587.375
262.619689941,7625.175
262.920410156,7676.5
263.221130371,7710.025
263.521789551,7717.2
263.822479248,7782.15
264.123138428,7821.9
264.42376709,7829.825
264.72442627,7834.3
265.025054932,7831.15
265.325622559,7822.8
265.626251221,7779.6
265.926818848,7742.875
266.227386475,7664.6
266.527954102,7629.825
266.828460693,7605.675
267.12902832,7493.075
267.429534912,7421.0
267.730010986,7372.35
268.030517578,7281.3
268.330993652,7233.675
268.631439209,7166.0
268.931915283,7125.3
269.232299805,7044.125
269.532745361,7030.675
269.8331604,6950.3
270.133544922,6921.425
270.433929443,6913.0
270.734313965,6857.025
271.034637451,6872.675
271.334991455,6840.7
271.635314941,6874.85
271.935638428,6849.025
272.235931396,6890.65
272.536254883,6946.225
272.836486816,7000.8
273.136749268,7050.575
273.437011719,7170.05
273.737213135,7262.525
274.037445068,7358.225
274.337677002,7432.275
274.6378479,7533.825
274.938049316,7659.425
275.238220215,7747.65
275.538360596,7859.0
275.838500977,7945.0
276.138641357,8135.625
276.438751221,8180.4
276.738830566,8264.7
277.03894043,8311.625
277.338989258,8455.975
277.639038086,8522.4
277.939056396,8594.1
278.239105225,8628.825
278.539093018,8743.4
278.839141846,8787.5
279.139129639,8831.225
279.439086914,8898.725
279.739044189,8995.375
280.039001465,9070.475
280.338928223,9102.375
280.63885498,9145.2
280.938781738,9211.175
281.238647461,9207.75
281.538513184,9187.2
281.838409424,9234.275
282.138244629,9292.375
282.438079834,9268.725
282.737945557,9316.975
283.037719727,9292.75
283.337524414,9328.2
283.637298584,9337.95
283.937072754,9353.175
284.236816406,9354.65
284.536560059,9302.875
284.836303711,9301.15
285.136016846,9378.7
285.43572998,9345.7
285.735412598,9331.8
286.035064697,9340.475
286.334747314,9377.225
286.634368896,9358.9
286.933990479,9269.75
287.233642578,9208.175
287.533203125,9191.1
287.832824707,9115.175
288.132385254,9016.35
288.431945801,8830.45
288.731506348,8701.925
289.031036377,8501.525
289.330566406,8336.1
289.630065918,8318.075
289.92956543,8255.975
290.229034424,8359.675
290.528503418,8549.075
290.827941895,8723.1
291.127380371,8885.125
291.42678833,9006.225
291.726226807,9163.2
292.025604248,9180.625
292.324981689,9231.6
292.624359131,9214.575
292.923736572,9224.075
293.223052979,9222.05
293.522369385,9241.925
293.821685791,9161.8
294.12097168,9134.0
294.420257568,9119.425
294.719543457,9045.375
295.018768311,9046.95
295.318023682,8961.6
295.617248535,8910.875
295.916442871,8823.6
296.215667725,8753.8
296.514862061,8597.65
296.813995361,8333.375
297.11315918,8122.7
297.412322998,7979.225
297.711425781,7941.25
298.010559082,8076.3
298.309631348,8315.7
298.608734131,8556.45
298.907806396,8765.475
299.206848145,8909.675
299.505889893,8983.3
299.804901123,9083.25
300.103912354,9183.9
300.402954102,9259.475
300.701904297,9324.3
301.00088501,9397.75
301.299835205,9437.425
301.5987854,9496.0
301.897735596,9583.175
302.196624756,9624.35
302.495513916,9738.3
302.794403076,9747.1
303.093292236,9800.525
303.392120361,9889.775
303.690979004,9940.25
303.989837646,9970.675
304.288604736,10041.825
304.587402344,10039.55
304.886199951,10084.775
305.184967041,10125.8
305.483734131,10174.325
305.782501221,10192.525
306.081176758,10204.55
306.37991333,10245.975
306.678619385,10252.975
306.977294922,10284.825
307.275970459,10278.35
307.574645996,10321.3
307.873260498,10270.65
308.171875,10291.7
308.470489502,10273.625
308.769104004,10189.775
309.067687988,10171.55
309.366241455,10190.925
309.664794922,10134.925
309.963348389,10148.725
310.261871338,10139.15
310.560394287,10122.75
310.858856201,10174.2
311.157348633,10190.3
311.455810547,10199.55
311.754272461,10211.675
312.052703857,10298.825
312.351135254,10297.2
312.649536133,10287.05
312.947937012,10292.6
313.246307373,10304.45
313.544647217,10328.225
313.843017578,10264.775
314.141387939,10228.825
314.439697266,10254.825
314.738006592,10166.35
315.036315918,10055.575
315.334564209,9987.275
315.6328125,9923.4
315.931091309,9877.95
316.229309082,9722.1
316.527526855,9535.675
316.825744629,9530.125
317.123901367,9400.925
317.422088623,9370.275
317.720245361,9343.9
318.0184021,9355.25
318.316497803,9394.175
318.614654541,9458.775
318.912750244,9540.5
319.21081543,9526.925
319.50894165,9574.125
319.806945801,9565.25
320.104980469,9521.875
320.403045654,9531.525
320.701049805,9494.825
320.999023438,9481.6
321.297027588,9437.175
321.595001221,9417.45
321.892913818,9374.0
322.190887451,9274.75
322.488830566,9223.775
322.786712646,9186.525
323.084625244,9064.125
323.382507324,9046.525
323.680358887,8943.175
323.978210449,8854.3
324.276062012,8791.725
324.573852539,8755.625
324.871643066,8674.15
325.169464111,8604.875
325.467224121,8542.75
325.764984131,8459.8
326.062744141,8371.2
326.360473633,8292.45
326.658203125,8227.9
326.955871582,8134.75
327.253570557,8065.675
327.551239014,7993.475
327.848907471,7937.2
328.146514893,7855.275
328.444152832,7780.5
328.741790771,7702.775
329.039367676,7675.425
329.336914062,7590.925
329.634521484,7489.675
329.932067871,7457.1
330.229553223,7358.15
330.527160645,7306.575
330.824615479,7241.7
331.12210083,7165.85
331.419586182,7021.35
331.717041016,6981.3
332.014465332,6890.525
332.311920166,6865.35
332.609313965,6776.975
332.906707764,6782.5
333.204101562,6773.7
333.501495361,6772.9
333.798828125,6835.525
334.096160889,6861.975
334.39352417,6914.5
334.690795898,6990.5
334.988098145,7039.025
335.285400391,7082.225
335.582641602,7092.95
335.879882812,7140.575
336.177124023,7153.15
336.474334717,7214.575
336.77154541,7214.725
337.068725586,7228.6
337.365905762,7235.45
337.66305542,7242.7
337.960205078,7269.025
338.257324219,7283.15
338.554443359,7306.925
338.8515625,7310.3
339.148590088,7328.975
339.445648193,7301.625
339.742736816,7275.9
340.039764404,7272.775
340.336761475,7226.725
340.63381958,7180.575
340.930755615,7115.5
341.227722168,7052.525
341.524688721,6961.3
341.821624756,6882.725
342.118560791,6929.1
342.415496826,7033.2
342.712402344,7176.175
343.009246826,7319.625
343.306121826,7463.9
343.602966309,7535.35
343.899810791,7623.175
344.196624756,7697.225
344.493438721,7711.725
344.79019165,7789.85
345.086975098,7826.675
345.383758545,7891.225
345.680480957,7841.475
345.977203369,7853.6
346.273956299,7906.8
346.570617676,7902.8
346.86730957,7938.85
347.163970947,7903.175
347.460601807,7975.025
347.757232666,7941.7
348.053894043,7943.825
348.350463867,7852.875
348.647064209,7847.975
348.943634033,7843.0
349.24017334,7844.4
349.536712646,7792.975
349.833251953,7809.75
350.129760742,7752.475
350.426208496,7752.4
350.722747803,7706.525
351.019195557,7703.175
351.315612793,7669.825
351.612060547,7638.4
351.908508301,7558.3
352.204864502,7514.675
352.501281738,7445.375
352.797637939,7390.025
353.093963623,7285.775
353.390319824,7243.5
353.686645508,7118.875
353.982940674,7067.475
354.27923584,7028.0
354.575531006,6939.7
354.871765137,6935.1
355.167999268,6889.275
355.464233398,6904.025
355.760437012,6916.175
356.056640625,6921.85
356.352813721,6937.9
356.648956299,6941.325
356.945129395,6961.925
357.241271973,6944.175
357.537384033,6956.2
357.833496094,6897.825
358.129577637,6857.475
358.425628662,6859.975
358.721679688,6818.4
359.017730713,6824.075
359.313720703,6746.675
359.609710693,6708.75
359.905761719,6662.525
360.201721191,6592.35
360.497650146,6533.05
360.793609619,6526.3
361.089538574,6432.575
361.385437012,6350.075
361.681365967,6291.825
361.977233887,6250.925
362.273071289,6169.875
362.568908691,6047.475
362.864746094,5929.525
363.160552979,5790.55
363.456359863,5585.125
363.752166748,5425.775
364.047912598,5351.725
364.343658447,5297.15
364.639434814,5333.5
364.935119629,5381.425
365.230834961,5448.375
365.526550293,5487.7
365.822174072,5488.3
366.117858887,5519.45
366.413482666,5563.5
366.709075928,5573.825
367.004730225,5485.6
367.300292969,5492.925
367.595855713,5539.025
367.891448975,5407.575
368.186981201,5299.075
368.482513428,5241.3
368.778015137,5219.6
369.073547363,5186.4
369.36895752,5201.65
369.664428711,5065.775
369.95993042,4983.5
370.255310059,4902.5
370.550720215,4868.725
370.846160889,4825.375
371.14151001,4798.175
371.436859131,4779.5
371.73223877,4732.525
372.027557373,4700.8
372.322875977,4653.175
372.618164062,4607.725
372.913482666,4562.3
373.208709717,4552.725
373.503967285,4497.6
373.799194336,4434.925
374.094421387,4432.0
374.389648438,4391.825
374.684844971,4395.85
374.979980469,4450.975
375.275146484,4460.125
375.570281982,4475.075
375.865386963,4498.6
376.160522461,4413.275
376.455596924,4435.4
376.750640869,4537.8
377.045715332,4534.95
377.340759277,4580.875
377.635772705,4641.875
377.93081665,4668.325
378.225769043,4786.55
378.520751953,4816.775
378.815734863,4771.275
379.110656738,4948.9
379.405548096,5160.55
379.700500488,4974.2
379.995391846,4737.075
380.290252686,4793.175
380.585083008,4912.425
380.879974365,4963.575
381.17477417,4847.925
381.469543457,4783.225
381.764404297,4777.5
382.059143066,4794.675
382.353912354,4915.975
382.648651123,5003.4
382.943389893,4941.275
383.238067627,4792.05
383.532775879,4792.325
383.827484131,4727.425
384.12210083,4720.925
384.416778564,4662.975
384.711425781,4555.975
385.006011963,4585.55
385.300628662,4568.9
385.595184326,4658.7
385.88973999,4743.575
386.184295654,4870.275
386.478820801,4956.825
386.77331543,5048.075
387.067840576,5184.975
387.362335205,5283.95
387.656768799,5352.9
387.951202393,5407.6
388.245635986,5484.825
388.540039062,5549.1
388.834472656,5636.05
389.128875732,5517.75
389.423187256,5275.15
389.717559814,5208.475
390.011871338,5346.675
390.306182861,5364.55
390.600463867,5392.475
390.894775391,5461.3
391.189025879,5491.2
391.48324585,5487.375
391.777526855,5534.125
392.071685791,5761.525
392.365875244,5878.675
392.660064697,5943.775
392.95425415,6339.675
393.248382568,6317.35
393.542510986,5780.45
393.836608887,5587.525
394.130706787,5594.175
394.424804688,5513.625
394.71887207,5672.175
395.012878418,5621.85
395.306915283,5516.15
395.600921631,5443.875
395.894927979,5378.5
396.188903809,5447.825
396.482879639,5452.575
396.776794434,5689.2
397.070739746,5638.15
397.364654541,5660.375
397.658538818,6114.45
397.952423096,6135.35
398.246307373,6079.875
398.540100098,6679.175
398.833953857,6536.65
399.127746582,5997.25
399.421508789,5992.0
399.715301514,5947.375
400.009063721,5827.625
400.30279541,5654.45
400.596496582,5575.025
400.890258789,5761.125
401.183929443,5854.35
401.47756958,5713.725
401.771240234,5445.825
402.064880371,5475.3
402.35848999,5533.85
402.652130127,5416.925
402.945678711,5488.45
403.239257812,5454.65
403.532775879,5366.675
403.82635498,5426.7
404.119842529,5320.4
404.413360596,5305.95
404.706848145,5376.0
405.000274658,5297.475
405.293762207,5387.3
405.587188721,5473.725
405.880584717,5267.725
406.17401123,5072.725
406.467407227,4815.875
406.760742188,4855.0
407.054107666,4887.6
407.347442627,4800.75
407.640716553,4788.7
407.934051514,4865.3
408.227325439,4919.75
408.520568848,5170.75
408.813842773,5253.225
409.107086182,5048.5
409.400238037,4976.8
409.693450928,4912.6
409.986633301,5048.75
410.279754639,4939.0
410.572875977,4626.35
410.86605835,4524.775
411.159118652,4539.75
411.452209473,4553.725
411.745330811,4409.85
412.038360596,4316.275
412.331390381,4365.45
412.624420166,4416.175
412.917388916,4299.45
413.210388184,4102.575
413.503387451,4078.675
413.796295166,3963.725
414.089233398,3767.9
414.382141113,3670.4
414.675048828,3650.4
414.967926025,3687.8
415.260803223,3633.275
415.55368042,3658.05
415.846466064,3612.05
416.139282227,3712.725
416.432098389,3858.2
416.724853516,3835.55
417.017608643,3779.25
417.31036377,3779.275
417.603088379,3931.75
417.895782471,3898.725
418.188476562,3859.975
418.481140137,3915.625
418.773803711,4004.075
419.066436768,3966.825
419.359039307,4043.375
419.651641846,4045.225
419.944244385,4049.7
420.236816406,3996.525
420.529327393,4235.275
420.821899414,4317.475
421.114379883,4216.875
421.406860352,4540.0
421.699371338,4770.825
421.991821289,4722.85
422.284240723,4497.75
422.576721191,4326.95
422.869110107,4212.7
423.161468506,4166.1
423.453857422,4185.425
423.74621582,4048.675
424.038543701,3912.85
424.330871582,3875.425
424.623168945,3795.65
424.915435791,3949.575
425.207702637,3894.15
425.499969482,3840.85
425.792205811,3769.35
426.084411621,3487.9
426.376617432,3584.225
426.668762207,3667.25
426.9609375,3523.0
427.253082275,3663.525
427.545196533,4115.9
427.837310791,3813.775
428.129425049,3472.75
428.421447754,3719.225
428.713531494,3731.3
429.005554199,3715.675
429.297576904,3739.4
429.589599609,4188.15
429.881561279,4545.425
430.173522949,4315.075
430.465484619,4264.1
430.757415771,4343.65
431.049316406,4067.375
431.341186523,3807.975
431.633117676,3708.725
431.924957275,3369.2
432.21673584,3247.575
432.508636475,3424.1
432.800415039,3435.925
433.092163086,3313.65
433.383972168,3285.8
433.675689697,4076.0
433.967437744,4621.8
434.259155273,3564.675
434.550872803,3211.625
434.842498779,3280.425
435.134185791,3430.825
435.425842285,3440.625
435.717437744,3348.575
436.009063721,3148.35
436.30065918,3297.35
436.592224121,3680.825
436.883758545,3456.75
437.175323486,3185.025
437.466827393,3131.0
437.758331299,3169.325
438.049804688,3175.975
438.341247559,3255.375
438.63269043,3343.1
438.924163818,3314.625
439.215515137,3277.125
439.50692749,3163.525
439.798309326,3176.55
440.089660645,3165.375
440.380981445,3078.55
440.672332764,3069.625
440.963623047,3363.125
441.254882812,3877.875
441.546173096,4083.5
441.837402344,3800.3
442.128631592,3600.65
442.41986084,3580.425
442.711029053,3431.575
443.002197266,3519.2
443.293365479,3721.45
443.584503174,3858.625
443.875610352,3837.675
444.166717529,3546.275
444.457794189,3593.15
444.748840332,3566.225
445.039916992,3526.725
445.330932617,3636.5
445.621948242,3446.1
445.912963867,3234.325
446.203918457,3497.075
446.494812012,3750.8
446.785827637,3521.625
447.076721191,3327.975
447.367584229,3295.95
447.658447266,3283.875
447.949371338,3325.875
448.24017334,3208.625
448.530975342,3114.325
448.821838379,3313.025
449.112579346,3397.475
449.40335083,3319.2
449.694152832,3347.425
449.984863281,3346.0
450.27557373,3283.725
450.56628418,3347.125
450.856933594,3371.525
451.147583008,3201.9
451.438262939,3063.3
451.728881836,3298.25
452.019470215,3396.625
452.310089111,3169.25
452.600646973,3195.225
452.891174316,3264.4
453.181732178,3072.45
453.472229004,2917.2
453.762695312,3043.95
454.053222656,3080.65
454.343658447,2917.55
454.634063721,2860.275
454.924530029,3065.05
455.214935303,3212.85
455.505279541,3284.05
455.795715332,3132.775
456.086029053,2912.75
456.376312256,2901.825
456.666687012,2930.925
456.956939697,3049.15
457.247192383,3047.975
457.537445068,3127.275
457.827728271,3332.175
458.117919922,3247.375
458.408081055,3169.125
458.698303223,3358.4
458.988433838,3280.975
459.278564453,3103.075
459.568725586,3406.8
459.858825684,3532.825
460.148864746,3177.95
460.438995361,3149.1
460.729034424,3209.7
461.019042969,3226.725
461.309082031,3429.1
461.599060059,3303.95
461.889007568,2802.725
462.179016113,2597.075
462.468933105,2863.75
462.75881958,2977.975
463.048736572,2709.35
463.338592529,2990.45
463.628448486,3386.85
463.918365479,3064.1
464.2081604,3236.875
464.497924805,3206.35
464.787780762,3350.45
465.077514648,3677.075
465.367218018,3256.5
465.657012939,3483.95
465.946685791,3930.35
466.236358643,3490.9
466.526092529,2903.675
466.815734863,2903.8
467.105316162,2825.125
467.394927979,2854.175
467.684570312,2710.05
467.974121094,2799.2
468.263671875,2908.8
468.553222656,2683.975
468.842773438,2570.85
469.132232666,2441.25
469.42175293,2479.025
469.711212158,2442.2
470.000640869,2295.725
470.290100098,2384.35
470.579498291,2418.725
470.868835449,2405.65
471.158294678,2370.3
471.447601318,2364.3
471.736907959,2423.85
472.026275635,2507.0
472.315551758,2475.075
472.604797363,2477.0
472.894104004,2625.175
473.183319092,2749.1
473.47253418,2724.425
473.761779785,2716.85
474.05090332,2646.25
474.340087891,2603.625
474.629241943,2513.625
474.918365479,2712.275
475.207427979,3017.7
475.496551514,3030.8
475.785614014,2740.65
476.074645996,2538.35
476.363708496,2633.875
476.652679443,2784.075
476.941650391,2575.025
477.230682373,2414.775
477.519622803,2410.55
477.808502197,2582.825
478.097412109,2866.6
478.386352539,2823.85
478.675201416,2537.875
478.964050293,2407.35
479.25289917,2613.875
479.541717529,2684.025
479.830474854,2510.525
480.11932373,2890.075
480.408050537,3091.55
480.696777344,2662.4
480.985534668,2528.075
481.274200439,2634.175
481.562866211,2909.025
481.851593018,2934.175
482.140197754,2853.225
482.428833008,2686.35
482.717468262,2460.725
483.006011963,2492.475
483.294586182,2630.125
483.5831604,2675.35
483.871673584,2509.175
484.16015625,2666.0
484.448699951,2957.325
484.7371521,3009.7
485.02557373,3005.6
485.314025879,2700.75
485.602416992,4209.125
485.890777588,14740.2
486.179199219,13195.375
486.467559814,3564.75
486.755859375,2590.425
487.044219971,3011.325
487.332519531,3239.25
487.620758057,2759.825
487.908966064,2476.025
488.197265625,2254.8
488.485473633,2131.55
488.773651123,2285.875
489.061859131,2266.15
489.350006104,2213.65
489.638122559,2141.225
489.926300049,2172.525
490.214355469,2112.15
490.502441406,2058.225
490.790527344,1984.425
491.078552246,2199.775
491.366546631,2200.05
491.654602051,1946.375
491.942565918,2022.125
492.230499268,2064.15
492.518493652,2020.325
492.806396484,2081.375
493.094268799,1962.175
493.382202148,2016.95
493.670074463,2140.7
493.957885742,1977.75
494.245727539,1969.2
494.533508301,2161.7
494.821289062,2026.875
495.109100342,1848.4
495.396850586,1805.3
495.684539795,1738.8
495.972290039,1999.05
496.25994873,2371.325
496.547607422,2385.2
496.835296631,2179.4
497.122894287,1824.35
497.410522461,1738.225
497.6980896,1736.725
497.985687256,1694.4
498.273223877,1809.65
498.560760498,1889.3
498.848266602,1913.85
499.135772705,1893.95
499.423217773,1925.125
499.710693359,2058.275
499.998138428,1991.425
500.285522461,1807.325
500.572937012,1711.95
500.860290527,1782.25
501.147644043,1884.275
501.434997559,2149.0
501.722290039,1989.9
502.00958252,1730.375
502.296875,2039.1
502.584106445,2014.775
502.871337891,1809.15
503.158599854,1889.3
503.445770264,1976.325
503.732910156,1964.475
504.020141602,1749.125
504.307220459,1730.45
504.594329834,1762.725
504.881469727,1700.875
505.168518066,1770.7
505.455535889,1855.9
505.742614746,1722.025
506.029632568,1636.025
506.316589355,1857.875
506.603637695,1953.55
506.890563965,1732.775
507.177459717,1546.975
507.464385986,1449.2
507.751312256,1712.6
508.038146973,1809.4
508.325012207,1637.15
508.611877441,1707.15
508.898681641,1708.275
509.185424805,1538.975
509.472259521,1491.95
509.759002686,1586.75
510.045715332,1627.275
510.332458496,1553.875
510.619140625,1629.575
510.905761719,1537.3
511.192504883,1527.05
511.479095459,1560.85
511.765686035,1515.775
512.052307129,1428.6
512.338928223,1363.975
512.625427246,1419.575
512.91204834,1502.775
513.198486328,1465.4
513.484985352,1429.9
513.77142334,1344.8
514.057922363,1401.425
514.344299316,1402.375
514.63079834,1343.55
514.917175293,1334.4
515.203552246,1227.175
515.489868164,1208.675
515.776245117,1345.45
516.0625,1388.325
516.348815918,1281.95
516.635070801,1326.025
516.921325684,1372.125
517.207580566,1312.325
517.493774414,1202.825
517.779968262,1214.575
518.066101074,1272.125
518.352294922,1205.7
518.638366699,1220.325
518.924499512,1304.55
519.210632324,1384.275
519.496643066,1351.525
519.782714844,1235.875
520.068786621,1196.325
520.354736328,1156.075
520.640686035,1108.825
520.926757812,1170.3
521.212646484,1255.675
521.498535156,1250.35
521.784484863,1197.775
522.0703125,1115.8
522.356262207,1136.95
522.642089844,1220.225
522.927856445,1213.525
523.213684082,1207.45
523.499511719,1194.325
523.78527832,1234.1
524.070983887,1304.25
524.356750488,1275.45
524.64239502,1232.575
524.928039551,1217.95
525.213806152,1241.975
525.499389648,1216.625
525.784973145,1255.65
526.070617676,1302.125
526.356140137,1263.35
526.641723633,1267.55
526.927307129,1333.5
527.212768555,1351.425
527.498291016,1319.75
527.783752441,1331.575
528.069213867,1299.225
528.354675293,1335.875
528.640014648,1512.7
528.925476074,1580.6
529.21081543,1501.125
529.496154785,1470.8
529.781555176,1429.65
530.066833496,1459.125
530.352050781,1485.65
530.637390137,1456.725
530.922607422,1462.775
531.207824707,1457.3
531.493041992,1446.175
531.778198242,1520.95
532.063354492,1489.45
532.348571777,1438.95
532.633666992,1457.375
532.918762207,1531.2
533.203857422,1630.275
533.488891602,1662.525
533.773925781,1610.7
534.059020996,1584.625
534.343933105,1608.3
534.628967285,1580.125
534.91394043,1596.975
535.198852539,1617.025
535.483703613,1579.45
535.768676758,1532.25
536.053527832,1520.8
536.338317871,1480.2
536.62322998,1408.55
536.90802002,1378.125
537.192810059,1397.25
537.477539062,1490.1
537.762329102,1533.65
538.047058105,1584.525
538.331726074,1608.15
538.616455078,1599.725
538.901123047,1573.125
539.18572998,1621.55
539.470397949,1634.025
539.755004883,1617.95
540.039550781,1572.7
540.32409668,1523.25
540.608703613,1580.075
540.893188477,1679.275
541.17767334,1694.1
541.462158203,1706.475
541.746643066,1644.775
542.031066895,1683.875
542.315429688,1729.275
542.59979248,1728.85
542.884216309,1704.65
543.168579102,1710.375
543.452941895,1712.05
543.737243652,1762.4
544.021484375,1831.125
544.305725098,1810.575
544.590026855,1787.45
544.874267578,1804.125
545.158447266,1881.0
545.442626953,1779.15
545.726806641,1672.0
546.010925293,1705.425
546.29510498,1737.9
546.579162598,1728.325
546.863220215,1764.075
547.147277832,1846.575
547.431335449,1927.4
547.715332031,1998.55
547.999328613,2130.65
548.283325195,2134.575
548.567260742,1964.3
548.851135254,1941.375
549.135070801,1901.375
549.419006348,1802.7
549.702819824,1910.15
549.986755371,1995.25
550.270507812,1950.45
550.554321289,2002.375
550.83807373,2026.1
551.121826172,1955.25
551.405517578,1993.575
551.689331055,2109.3
551.973022461,2349.725
552.256652832,2429.825
552.540344238,2321.4
552.823974609,2295.075
553.107543945,2279.45
553.391174316,2345.825
553.674743652,2412.575
553.958251953,2417.025
554.241821289,2424.575
554.525268555,2345.475
554.808776855,2339.85
555.092285156,2567.825
555.375671387,2660.35
555.659057617,2648.2
555.942504883,2681.575
556.225891113,2726.225
556.509216309,2682.5
556.792541504,2586.525
557.075866699,2656.5
557.359130859,2699.25
557.64239502,2704.85
557.92565918,2779.05
558.208862305,2765.725
558.49206543,2680.8
558.77532959,2705.15
559.058410645,2754.35
559.341552734,2740.575
559.624694824,2814.725
559.907775879,2883.55
560.190856934,3015.675
560.473937988,3008.2
560.756896973,3044.6
561.039978027,3099.375
561.322937012,3031.55
561.605895996,3025.375
561.88885498,2993.45
562.171813965,2982.0
562.454650879,2989.425
562.737548828,3035.7
563.020446777,3106.4
563.303283691,3112.725
563.58605957,3163.25
563.868896484,3170.775
564.151672363,3228.0
564.434387207,3250.925
564.717163086,3225.75
564.99987793,3265.75
565.282531738,3357.325
565.565185547,3275.275
565.847839355,3288.725
566.130432129,3426.6
566.413085938,3387.15
566.695678711,3402.875
566.978149414,3522.6
567.260681152,3689.9
567.543273926,3761.25
567.825744629,3648.025
568.108154297,3707.475
568.390686035,3842.4
568.673095703,3984.3
568.955505371,4015.45
569.237854004,4060.7
569.520202637,4354.6
569.802490234,4594.95
570.084838867,4558.875
570.367126465,4368.925
570.649414062,4384.875
570.93170166,4783.025
571.213928223,4849.0
571.496154785,4593.65
571.778381348,4837.075
572.06048584,5120.025
572.342590332,4642.525
572.624755859,4229.825
572.906860352,4300.1
573.188903809,5042.95
573.470947266,5346.15
573.752990723,5074.925
574.03503418,5175.225
574.317016602,5592.925
574.598937988,5352.85
574.88092041,5220.375
575.162841797,5437.275
575.444763184,5033.75
575.726623535,4724.25
576.008483887,4773.55
576.290344238,5214.275
576.572143555,5419.675
576.853881836,5523.425
577.135681152,5372.1
577.417419434,5447.425
577.699157715,6417.325
577.980895996,6599.15
578.262573242,5878.175
578.544128418,5335.875
578.825866699,5265.6
579.107421875,4946.775
579.388977051,5131.725
579.670593262,5561.225
579.952148438,5396.825
580.233642578,5488.925
580.515197754,5634.475
580.796691895,5289.625
581.078125,5487.95
581.359619141,7132.55
581.640991211,7232.75
581.922363281,6245.375
582.203796387,6320.675
582.485107422,5893.125
582.766418457,5471.575
583.047790527,5282.825
583.329040527,5170.875
583.610290527,5041.75
583.891540527,5141.35
584.172790527,5479.65
584.453918457,5509.45
584.735107422,5574.65
585.016235352,6065.75
585.297363281,6038.6
585.578552246,5822.7
585.859619141,5751.175
586.140625,5488.85
586.421630859,5356.65
586.702697754,5404.4
586.983642578,5626.5
587.264648438,5810.875
587.545654297,5749.025
587.826477051,5687.275
588.107421875,5493.175
588.388305664,5521.175
588.669189453,5626.325
588.950012207,5473.4
589.230834961,5349.45
589.511657715,5445.2
589.792358398,5543.125
590.073120117,5552.875
590.353881836,5510.675
590.63458252,5535.25
590.915283203,5495.75
591.195922852,5470.0
591.4765625,5533.05
591.757202148,5576.5
592.037780762,5538.525
592.31829834,5571.85
592.598937988,5811.05
592.879394531,5968.625
593.159912109,5877.65
593.440429688,5798.975
593.720825195,5764.825
594.001281738,5737.025
594.281677246,5663.75
594.562072754,5675.3
594.842407227,5762.05
595.122802734,5828.125
595.403137207,5797.175
595.683410645,5787.075
595.963623047,5761.625
596.243896484,5702.525
596.524169922,5701.575
596.804382324,5742.675
597.084533691,5755.625
597.364746094,5775.625
597.644836426,5825.1
597.924987793,5783.35
598.205078125,5745.075
598.485107422,5807.0
598.765197754,5904.25
599.045227051,5985.15
599.325195312,5869.25
599.605224609,5837.675
599.885192871,5891.2
600.165100098,5897.925
600.445007324,5863.125
600.724914551,5860.025
601.004760742,5869.075
601.284667969,5881.075
601.56451416,5854.025
601.844238281,5840.125
602.124084473,5855.9
602.403808594,5881.2
602.683532715,5881.85
602.963256836,5872.85
603.242919922,5941.2
603.522583008,5981.75
603.802246094,5932.075
604.081848145,5913.575
604.36138916,5869.2
604.641052246,5938.4
604.920532227,5868.8
605.200073242,5919.575
605.479614258,5957.55
605.759094238,5976.075
606.038574219,5969.8
606.317932129,5890.575
606.597412109,5882.9
606.87677002,5893.975
607.15612793,5947.8
607.435546875,5937.3
607.714782715,5939.1
607.99407959,5905.3
608.273376465,5880.925
608.552612305,5908.175
608.831848145,5934.075
609.111083984,5915.05
609.390258789,5889.45
609.669433594,5907.25
609.948608398,5950.475
610.227722168,5941.025
610.506713867,5857.1
610.785888672,5885.925
611.064880371,5874.675
611.34387207,5898.725
611.622924805,5933.95
611.901916504,5903.675
612.180847168,5843.625
612.459777832,5869.125
612.738647461,5846.525
613.01751709,5826.675
613.296447754,5773.725
613.575317383,5734.45
613.854064941,5690.725
614.132873535,5587.3
614.411621094,5533.325
614.690368652,5493.575
614.969177246,5446.725
615.247802734,5350.175
615.526489258,5325.425
615.805175781,5233.125
616.08380127,5075.325
616.362365723,4994.575
616.640991211,4972.75
616.919555664,4906.75
617.198059082,5009.65
617.4765625,5295.125
617.755126953,5439.375
618.033569336,5509.3
618.311950684,5478.6
618.590454102,5494.275
618.868774414,5447.65
619.147155762,5465.9
619.425598145,5435.65
619.703857422,5464.225
619.982177734,5469.6
620.260498047,5469.225
620.538757324,5419.725
620.816955566,5403.6
621.095214844,5365.725
621.373413086,5404.65
621.651550293,5453.45
621.929748535,5480.95
622.207824707,5464.95
622.485900879,5461.7
622.764038086,5466.425
623.042053223,5506.825
623.320007324,5512.025
623.598083496,5527.425
623.876037598,5497.775
624.153991699,5542.65
624.432006836,5548.575
624.709838867,5546.5
624.987731934,5529.05
625.265563965,5554.85
625.543395996,5564.125
625.821228027,5604.925
626.098999023,5612.1
626.376831055,5653.825
626.654541016,5688.4
626.932250977,5694.95
627.209960938,5754.8
627.487670898,5769.325
627.765319824,5787.85
628.04296875,5793.775
628.320495605,5809.75
628.598083496,5790.2
628.875671387,5824.475
629.153259277,5866.975
629.430725098,5915.825
629.708251953,5922.85
629.985656738,5945.0
630.263122559,5990.375
630.540588379,6022.1
630.817932129,6023.075
631.095275879,6082.35
631.372680664,6094.825
631.649963379,6169.725
631.927246094,6231.775
632.204589844,6218.1
632.481811523,6279.85
632.759033203,6400.725
633.036254883,6394.3
633.313415527,6474.425
633.590576172,6529.325
633.867736816,6626.2
634.144836426,6731.225
634.421875,6732.425
634.698913574,6821.45
634.976013184,6868.75
635.252990723,6966.175
635.529968262,6969.575
635.807006836,7063.425
636.08392334,7037.075
636.360839844,6945.75
636.637756348,6843.3
636.914611816,6813.175
637.191467285,6816.775
637.468261719,6871.275
637.745056152,6838.4
638.021789551,6842.075
638.298583984,6885.475
638.575317383,6928.075
638.851989746,6929.8
639.12878418,6931.0
639.405395508,6901.325
639.682006836,6965.5
639.958618164,6973.25
640.235229492,6922.85
640.511779785,6985.15
640.788330078,6960.4
641.064880371,6951.975
641.341308594,6947.85
641.617797852,6936.675
641.894226074,6933.975
642.170654297,6960.95
642.44708252,6971.375
642.723388672,6983.475
642.999755859,6957.9
643.276123047,6959.375
643.552429199,6924.775
643.828674316,6931.475
644.104919434,6927.2
644.381164551,6957.0
644.657348633,6956.175
644.933532715,6900.425
645.209716797,6903.775
645.485839844,6900.05
645.761901855,6925.0
646.038024902,6908.1
646.314086914,6948.725
646.590087891,6911.0
646.866149902,6935.9
647.142150879,6906.125
647.41809082,6874.85
647.694030762,6897.775
647.969970703,6864.8
648.245788574,6899.45
648.521728516,6899.9
648.797546387,6873.35
649.073303223,6895.65
649.349182129,6882.25
649.624938965,6867.05
649.900634766,6876.475
650.176391602,6886.675
650.452087402,6861.025
650.727783203,6862.0
651.003479004,6862.375
651.279052734,6856.725
651.554626465,6844.175
651.83026123,6840.925
652.105773926,6867.725
652.381286621,6805.575
652.656860352,6820.65
652.932312012,6826.25
653.207763672,6831.95
653.483215332,6885.7
653.758605957,6859.475
654.033935547,6873.425
654.309326172,6876.4
654.584716797,6883.675
654.859985352,6881.7
655.135253906,6912.2
655.410583496,6927.05
655.685791016,8009.4
655.9609375,12428.425
656.236206055,12130.875
656.511291504,8071.825
656.786437988,7083.225
657.061645508,6960.2
657.336669922,6954.1
657.611694336,6992.925
657.886779785,7015.65
658.161804199,7043.3
658.436828613,7019.45
658.711791992,7030.925
658.986755371,7019.725
659.261657715,7055.225
659.536621094,7076.25
659.811401367,7098.125
660.086303711,7112.275
660.36114502,7095.65
660.635864258,7105.65
660.910644531,7142.925
661.185424805,7116.25
661.460205078,7165.375
661.734863281,7142.85
662.009521484,7132.825
662.284179688,7158.075
662.558776855,7204.275
662.833435059,7215.65
663.108032227,7253.675
663.382568359,7258.775
663.657043457,7286.6
663.93157959,7293.85
664.206054688,7280.3
664.48046875,7338.675
664.755004883,7348.925
665.02935791,7353.675
665.303710938,7369.175
665.578125,7410.975
665.852416992,7400.0
666.126708984,7413.1
666.401062012,7428.2
666.675292969,7464.675
666.949462891,7472.65
667.223754883,7467.7
667.497924805,7504.875
667.772094727,7504.425
668.046264648,7498.075
668.3203125,7580.95
668.594421387,7583.625
668.868469238,7560.875
669.14251709,7601.75
669.416503906,7628.7
669.690551758,7611.1
669.964477539,7644.125
670.23840332,7637.725
670.512329102,7667.325
670.786254883,7609.975
671.060058594,7707.875
671.333984375,7708.8
671.607788086,7737.9
671.881530762,7724.525
672.155334473,7775.125
672.429077148,7774.175
672.702758789,7828.425
672.97644043,7778.1
673.25012207,7788.4
673.523742676,7792.15
673.797302246,7792.575
674.070922852,7876.375
674.344482422,7891.475
674.618041992,7875.35
674.891601562,7870.4
675.165100098,7908.6
675.438476562,7911.175
675.711975098,7920.675
675.985412598,7898.225
676.258789062,7884.775
676.532165527,7948.675
676.805480957,7934.4
677.078796387,7972.2
677.352111816,7999.525
677.625366211,7985.825
677.898620605,7969.6
678.171875,8048.475
678.445007324,8030.275
678.718200684,8075.65
678.991394043,8063.275
679.264404297,8066.875
679.537536621,8094.325
679.81060791,8077.125
680.083679199,8102.175
680.356689453,8113.675
680.629699707,8133.075
680.902648926,8089.875
681.175598145,8170.525
681.448547363,8193.675
681.721435547,8149.225
681.99420166,8164.075
682.267150879,8155.2
682.539916992,8203.95
682.812744141,8177.775
683.085510254,8176.275
683.358215332,8198.05
683.63092041,8193.075
683.903625488,8196.5
684.176330566,8194.0
684.448913574,8189.2
684.721557617,8177.7
684.99420166,8243.0
685.266662598,8253.9
685.539245605,8260.175
685.811767578,8293.05
686.084289551,8299.75
686.356689453,8342.45
686.629150391,8373.85
686.901550293,8368.25
687.17401123,8384.8
687.446350098,8415.6
687.718688965,8403.95
687.990966797,8471.95
688.263305664,8472.775
688.535522461,8448.175
688.807739258,8449.9
689.079956055,8512.525
689.352172852,8543.1
689.624328613,8537.85
689.896484375,8544.175
690.168518066,8556.0
690.440612793,8578.625
690.71270752,8593.65
690.984741211,8603.75
691.256713867,8623.35
691.528747559,8643.575
691.800720215,8652.15
692.072631836,8678.75
692.344543457,8706.925
692.616394043,8710.4
692.888244629,8726.9
693.160095215,8745.75
693.431945801,8793.35
693.703674316,8748.6
693.975463867,8733.05
694.247131348,8798.775
694.518859863,8782.725
694.790588379,8839.6
695.062255859,8862.35
695.33380127,8834.675
695.60546875,8808.85
695.87701416,8848.1
696.148498535,8852.2
696.42010498,8897.375
696.691589355,8901.725
696.96307373,8940.45
697.234558105,8960.875
697.50592041,8958.125
697.777282715,8985.2
698.048706055,8987.75
698.320068359,9017.55
698.591308594,9022.35
698.862670898,9010.3
699.133972168,9096.575
699.405151367,9064.6
699.676391602,9100.0
699.947570801,9070.3
700.21875,9082.975
700.489868164,9098.575
700.761047363,9108.1
701.032104492,9153.025
701.303100586,9102.1
701.57421875,9167.9
701.845214844,9177.85
702.116149902,9178.875
702.387207031,9169.375
702.65814209,9187.025
702.928955078,9211.3
703.199951172,9169.3
703.47076416,9164.65
703.741577148,9195.3
704.012451172,9233.625
704.28314209,9229.625
704.553955078,9233.4
704.824707031,9314.1
705.095397949,9317.425
705.366027832,9330.3
705.63671875,9335.5
705.907348633,9322.575
706.17791748,9340.075
706.448486328,9348.425
706.719055176,9401.1
706.989562988,9388.9
707.260131836,9401.525
707.530517578,9454.55
707.800964355,9434.575
708.071411133,9392.125
708.341796875,9378.875
708.612182617,9381.975
708.882446289,9365.375
709.152893066,9411.725
709.423156738,9448.875
709.693359375,9389.05
709.963623047,9436.425
710.233825684,9462.875
710.503967285,9434.65
710.774169922,9426.775
711.044311523,9432.1
711.31439209,9413.8
711.584533691,9450.7
711.854553223,9457.0
712.124572754,9517.225
712.39465332,9436.975
712.664611816,9472.575
712.934509277,9550.275
713.204467773,9490.15
713.474365234,9509.55
713.74420166,9516.425
714.014099121,9511.55
714.283874512,9477.075
714.553710938,9560.55
714.823486328,9539.0
715.093200684,9511.25
715.362915039,9543.75
715.632629395,9532.275
715.902282715,9499.1
716.171875,9501.4
716.441589355,9516.3
716.711181641,9485.85
716.980712891,9522.525
717.250244141,9540.0
717.519775391,9520.675
717.78918457,9518.8
718.058654785,9577.825
718.328125,9603.175
718.597473145,9545.575
718.866882324,9561.75
719.136230469,9581.925
719.405578613,9586.925
719.674865723,9619.3
719.944152832,9584.4
720.213439941,9546.175
720.48260498,9592.225
720.75177002,9601.0
721.020996094,9621.525
721.290100098,9607.8
721.559204102,9589.925
721.828308105,9618.65
722.097351074,9626.45
722.366455078,9601.075
722.635437012,9581.9
722.904418945,9564.175
723.173400879,9610.7
723.442321777,9594.325
723.711181641,9602.125
723.980102539,9614.575
724.248962402,9611.4
724.51776123,9594.525
724.786560059,9625.775
725.055358887,9633.05
725.324035645,9626.5
725.592834473,9619.55
725.86151123,9595.375
726.130187988,9577.75
726.398803711,9580.525
726.667419434,9623.0
726.935974121,9586.25
727.204528809,9555.125
727.473083496,9551.775
727.741638184,9512.375
728.010070801,9478.15
728.278564453,9473.9
728.546936035,9474.7
728.815368652,9408.875
729.08380127,9365.275
729.352111816,9300.625
729.620361328,9225.35
729.88873291,9291.575
730.156982422,9349.275
730.425231934,9353.4
730.693481445,9352.05
730.961669922,9386.25
731.229797363,9426.225
731.49798584,9438.625
731.766113281,9515.125
732.034118652,9599.35
732.302246094,9613.675
732.570251465,9661.975
732.838256836,9674.9
733.106262207,9795.9
733.374145508,9803.275
733.642089844,9888.225
733.909973145,9934.925
734.177856445,10014.975
734.445678711,10104.525
734.713562012,10220.575
734.981323242,10193.075
735.249084473,10251.425
735.516845703,10432.225
735.784545898,10494.95
736.052185059,10541.25
736.319885254,10657.8
736.587524414,10712.075
736.855102539,10736.575
737.122619629,10905.025
737.390197754,10873.375
737.657714844,11055.725
737.925170898,11096.975
738.192749023,11204.85
738.460144043,11300.9
738.727539062,11331.15
738.994995117,11449.975
739.262329102,11540.95
739.529663086,11640.475
739.79699707,11651.825
740.06427002,11751.0
740.331481934,11849.7
740.598754883,11905.9
740.865905762,11887.05
741.133056641,12081.65
741.40032959,12099.45
741.667358398,12182.275
741.934448242,12198.125
742.201599121,12247.775
742.468566895,12321.325
742.735534668,12389.925
743.002563477,12394.725
743.26953125,12366.0
743.536437988,12453.75
743.803405762,12582.5
744.0703125,12526.325
744.337097168,12663.125
744.604003906,12566.825
744.870727539,12657.325
745.137512207,12713.3
745.40423584,12740.975
745.670959473,12707.75
745.93762207,12744.25
746.204284668,12753.875
746.470947266,12807.275
746.737548828,12772.85
747.004089355,12797.85
747.270751953,12818.65
747.53717041,12852.825
747.803710938,12775.725
748.070251465,12747.975
748.336608887,12734.15
748.603027344,12740.7
748.869445801,12755.75
749.135803223,12750.075
749.402099609,12735.425
749.668457031,12751.225
749.934753418,12703.775
750.20098877,12667.975
750.467224121,12703.025
750.733459473,12673.4
750.999572754,12634.275
751.26574707,12541.25
751.531860352,12598.525
751.797912598,12563.5
752.064025879,12477.65
752.330078125,12531.675
752.596069336,12472.45
752.862060547,12421.175
753.127990723,12466.225
753.393920898,12410.825
753.659912109,12389.025
753.925720215,12408.325
754.19152832,12371.025
754.457397461,12311.775
754.723144531,12282.475
754.988952637,12203.775
755.254699707,12210.475
755.520385742,12251.025
755.786071777,12257.9
756.051696777,12197.8
756.317382812,12163.25
756.582946777,12116.225
756.848510742,12133.5
757.114074707,12074.975
757.379577637,12068.825
757.645080566,12135.475
757.910583496,12118.25
758.175964355,12029.35
758.441345215,11997.5
758.706848145,11831.775
758.972106934,11831.25
759.237426758,11876.575
759.502807617,11872.65
759.768005371,11875.65
760.03326416,11875.15
760.298522949,11736.5
760.563659668,11800.55
760.828857422,11817.25
761.093994141,11751.35
761.359130859,11699.15
761.624206543,11667.625
761.889282227,11607.975
762.15423584,11605.975
762.419250488,11583.125
762.684265137,11554.05
762.949157715,11504.425
763.214050293,11532.7
763.479003906,11523.825
763.743835449,11491.925
764.008666992,11448.825
764.2734375,11448.625
764.538208008,11488.925
764.802978516,11497.55
765.067687988,11455.175
765.332397461,11427.425
765.597045898,11393.0
765.861694336,11352.225
766.126342773,11319.0
766.390930176,11262.8
766.655395508,11256.8
766.920043945,11229.5
767.184509277,11219.9
767.448974609,11217.325
767.713439941,11188.175
767.977783203,11167.575
768.2421875,11174.7
768.506591797,11088.225
768.770874023,11208.0
769.03515625,11171.825
769.299499512,11137.725
769.563720703,11154.5
769.827941895,11080.225
770.092163086,11092.4
770.356323242,11048.3
770.620483398,11095.075
770.88458252,11082.05
771.148681641,11083.05
771.412719727,11034.3
771.676757812,11073.6
771.940734863,11003.225
772.204711914,10988.65
772.468688965,10961.975
772.73260498,10943.45
772.996459961,10954.3
773.260314941,9771.325
773.524169922,1243.975
773.787963867,158.325
774.051696777,121.875
774.315551758,116.85
774.579223633,119.175
774.842895508,119.125
775.106567383,121.5
775.370239258,119.0
775.633789062,123.9
775.897399902,124.525
776.160949707,118.65
776.424499512,118.7
776.687988281,125.35
776.951477051,124.8
777.214904785,119.825
777.47833252,120.55
