191.299911499,101.0
191.603515625,103.05
191.907119751,97.775
192.210693359,106.375
192.514251709,102.4
192.817810059,100.875
193.121368408,102.825
193.42489624,106.4
193.728408813,98.575
194.031936646,99.375
194.33543396,92.15
194.638916016,109.825
194.94241333,96.825
195.245880127,98.8
195.549331665,97.3
195.852767944,99.625
196.156204224,191.975
196.459625244,184.5
196.763015747,185.25
197.066436768,190.975
197.369812012,183.3
197.673187256,186.55
197.9765625,180.95
198.279922485,186.0
198.583251953,177.8
198.886581421,186.275
199.18989563,190.2
199.493209839,188.85
199.79649353,177.5
200.09979248,192.85
200.403076172,184.25
200.706314087,189.55
201.009567261,185.4
201.312820435,186.45
201.616027832,177.4
201.919235229,174.35
202.222457886,178.775
202.525634766,183.3
202.828826904,175.175
203.132003784,174.5
203.435150146,178.675
203.738296509,172.7
204.041412354,178.4
204.344558716,179.05
204.647659302,180.825
204.950759888,182.8
205.253845215,179.0
205.556930542,178.825
205.859985352,182.15
206.163024902,181.7
206.466079712,180.875
206.769104004,190.85
207.072113037,179.85
207.375137329,181.2
207.678131104,180.7
207.981109619,182.25
208.284088135,175.6
208.587036133,187.25
208.889984131,186.575
209.19291687,188.0
209.495849609,185.375
209.798751831,186.475
210.101654053,187.125
210.404556274,188.775
210.707427979,184.95
211.010269165,192.425
211.31312561,193.775
211.615982056,190.15
211.918807983,188.8
212.221618652,191.3
212.524429321,189.45
212.827224731,199.45
213.130004883,194.25
213.432769775,194.1
213.735534668,194.5
214.038269043,201.525
214.341003418,195.3
214.643737793,201.85
214.946456909,205.0
215.249145508,200.95
215.551834106,206.825
215.854507446,201.1
216.157165527,204.575
216.45980835,204.75
216.762451172,213.425
217.065078735,213.45
217.36769104,212.375
217.670303345,217.45
217.972885132,213.75
218.275466919,219.2
218.578048706,215.325
218.880599976,226.475
219.183120728,223.45
219.485656738,227.9
219.788192749,239.55
220.090682983,255.6
220.393188477,268.3
220.695663452,295.125
220.998138428,320.75
221.300582886,358.4
221.603042603,389.425
221.905487061,440.6
222.207901001,495.225
222.510299683,557.55
222.812728882,636.375
223.115097046,707.225
223.41746521,794.325
223.719848633,879.325
224.022171021,960.475
224.324508667,1053.775
224.626846313,1181.0
224.929168701,1279.675
225.231460571,1391.875
225.533737183,1497.925
225.836013794,1595.95
226.138290405,1715.925
226.440536499,1803.075
226.742767334,1918.05
227.044998169,1993.15
227.347213745,2104.525
227.649429321,2176.05
227.951629639,2262.05
228.253799438,2329.2
228.555953979,2420.95
228.858123779,2495.475
229.160263062,2555.125
229.462371826,2603.775
229.764511108,2673.2
230.066619873,2731.875
230.36869812,2772.8
230.670776367,2835.95
230.972854614,2910.0
231.274902344,2957.275
231.576950073,3041.8
231.878967285,3089.15
232.180999756,3146.225
232.48298645,3223.875
232.784988403,3286.0
233.086975098,3356.05
233.388946533,3417.45
233.69090271,3496.125
233.992858887,3558.65
234.294769287,3567.1
234.596694946,3639.55
234.898605347,3708.975
235.200500488,3750.5
235.502380371,3790.325
235.804244995,3844.225
236.106109619,3861.275
236.407958984,3881.925
236.709777832,3942.8
237.011581421,3982.325
237.313400269,3990.95
237.615203857,4018.475
237.916976929,4070.825
238.21875,4073.35
238.520507812,4091.65
238.822250366,4142.05
239.12399292,4159.075
239.425704956,4204.6
239.727401733,4194.875
240.02911377,4223.125
240.330780029,4227.625
240.632446289,4268.5
240.93409729,4295.7
241.23576355,4321.125
241.537384033,4364.075
241.839004517,4390.85
242.140594482,4426.175
242.442199707,4486.0
242.743774414,4488.725
243.045333862,4529.85
243.346923828,4561.275
243.648452759,4606.85
243.949966431,4631.375
244.251495361,4662.525
244.552993774,4704.65
244.854492188,4698.8
245.155975342,4741.225
245.457443237,4747.675
245.758880615,4764.325
246.060333252,4780.7
246.36177063,4779.125
246.66317749,4798.5
246.964569092,4804.975
247.265945435,4798.425
247.567337036,4822.525
247.86869812,4862.65
248.170059204,4888.875
248.471389771,4920.1
248.772705078,4961.65
249.074035645,5011.625
249.375335693,5017.325
249.676620483,5088.225
249.977890015,5113.375
250.279159546,5203.525
250.58039856,5278.675
250.881637573,5345.95
251.182876587,5396.0
251.484069824,5484.475
251.785263062,5572.45
252.086456299,5669.325
252.387619019,5730.525
252.688781738,5789.625
252.989929199,5870.8
253.291061401,5977.925
253.592178345,6054.275
253.893280029,6126.65
254.194366455,6188.475
254.49546814,6252.275
254.796524048,6272.5
255.097579956,6339.125
255.398620605,6363.85
255.699645996,6429.6
256.000640869,6429.375
256.30166626,6475.275
256.602661133,6530.2
256.903656006,6482.7
257.204589844,6531.75
257.505523682,6483.225
257.80645752,6546.225
258.107391357,6494.05
258.408294678,6479.15
258.709228516,6460.925
259.010070801,6396.5
259.310943604,6407.525
259.611846924,6323.325
259.912658691,6273.05
260.213500977,6215.55
260.514343262,6180.0
260.815124512,6122.7
261.115936279,6068.95
261.416717529,6045.0
261.717468262,6006.15
262.018218994,5950.525
262.318969727,5932.15
262.619689941,5956.0
262.920410156,5998.875
263.221130371,6029.45
263.521789551,6027.875
263.822479248,6053.525
264.123138428,6110.175
264.42376709,6115.175
264.72442627,6067.7
265.025054932,6072.775
265.325622559,6074.05
265.626251221,6022.7
265.926818848,5993.175
266.227386475,5931.0
266.527954102,5885.95
266.828460693,5877.425
267.12902832,5774.425
267.429534912,5741.65
267.730010986,5683.95
268.030517578,5597.55
268.330993652,5570.65
268.631439209,5519.025
268.931915283,5480.55
269.232299805,5423.55
269.532745361,5374.25
269.8331604,5331.4
270.133544922,5309.525
270.433929443,5294.45
270.734313965,5238.625
271.034637451,5247.0
271.334991455,5215.425
271.635314941,5241.45
271.935638428,5243.625
272.235931396,5263.35
272.536254883,5290.25
272.836486816,5339.55
273.136749268,5383.25
273.437011719,5462.1
273.737213135,5520.675
274.037445068,5589.95
274.337677002,5643.425
274.6378479,5718.225
274.938049316,5830.1
275.238220215,5895.075
275.538360596,5975.75
275.838500977,6061.6
276.138641357,6166.025
276.438751221,6205.75
276.738830566,6271.275
277.03894043,6340.2
277.338989258,6423.875
277.639038086,6476.675
277.939056396,6512.075
278.239105225,6557.075
278.539093018,6610.575
278.839141846,6675.625
279.139129639,6692.1
279.439086914,6777.925
279.739044189,6800.85
280.039001465,6867.75
280.338928223,6890.375
280.63885498,6918.25
280.938781738,6978.525
281.238647461,6979.2
281.538513184,6972.3
281.838409424,7002.4
282.138244629,7044.175
282.438079834,7039.5
282.737945557,7038.45
283.037719727,7037.5
283.337524414,7072.025
283.637298584,7062.275
283.937072754,7077.675
284.236816406,7090.55
284.536560059,7067.475
284.836303711,7065.7
285.136016846,7139.75
285.43572998,7110.8
285.735412598,7086.825
286.035064697,7099.1
286.334747314,7115.775
286.634368896,7116.8
286.933990479,7051.55
287.233642578,7006.3
287.533203125,6967.175
287.832824707,6938.725
288.132385254,6836.05
288.431945801,6719.375
288.731506348,6607.475
289.031036377,6438.75
289.330566406,6337.55
289.630065918,6354.625
289.92956543,6295.775
290.229034424,6372.825
290.528503418,6512.425
290.827941895,6651.025
291.127380371,6786.85
291.42678833,6879.775
291.726226807,6974.55
292.025604248,6995.825
292.324981689,7030.925
292.624359131,7041.95
292.923736572,7032.375
293.223052979,7037.675
293.522369385,7047.5
293.821685791,7002.075
294.12097168,6976.175
294.420257568,6953.325
294.719543457,6948.2
295.018768311,6921.25
295.318023682,6861.85
295.617248535,6791.6
295.916442871,6758.275
296.215667725,6714.3
296.514862061,6587.075
296.813995361,6395.575
297.11315918,6216.15
297.412322998,6104.85
297.711425781,6085.325
298.010559082,6200.95
298.309631348,6389.675
298.608734131,6545.925
298.907806396,6740.35
299.206848145,6841.95
299.505889893,6907.4
299.804901123,6999.2
300.103912354,7063.85
300.402954102,7164.5
300.701904297,7174.05
301.00088501,7249.775
301.299835205,7291.675
301.5987854,7319.475
301.897735596,7403.625
302.196624756,7436.5
302.495513916,7499.075
302.794403076,7522.0
303.093292236,7573.625
303.392120361,7636.1
303.690979004,7697.3
303.989837646,7739.975
304.288604736,7779.0
304.587402344,7777.1
304.886199951,7797.425
305.184967041,7872.55
305.483734131,7905.75
305.782501221,7914.025
306.081176758,7919.675
306.37991333,7950.8
306.678619385,7950.6
306.977294922,7975.9
307.275970459,7989.7
307.574645996,8020.875
307.873260498,7990.375
308.171875,7969.575
308.470489502,7989.65
308.769104004,7909.275
309.067687988,7904.8
309.366241455,7928.775
309.664794922,7913.575
309.963348389,7900.375
310.261871338,7900.45
310.560394287,7889.1
310.858856201,7934.35
311.157348633,7947.45
311.455810547,7973.85
311.754272461,7990.05
312.052703857,8047.75
312.351135254,8047.1
312.649536133,8063.875
312.947937012,8033.95
313.246307373,8061.275
313.544647217,8069.025
313.843017578,8020.1
314.141387939,8010.975
314.439697266,8030.625
314.738006592,7955.275
315.036315918,7901.025
315.334564209,7840.75
315.6328125,7785.775
315.931091309,7727.775
316.229309082,7616.5
316.527526855,7502.175
316.825744629,7469.275
317.123901367,7376.375
317.422088623,7369.575
317.720245361,7358.6
318.0184021,7357.0
318.316497803,7384.8
318.614654541,7415.6
318.912750244,7500.95
319.21081543,7480.725
319.50894165,7539.9
319.806945801,7527.275
320.104980469,7507.95
320.403045654,7499.7
320.701049805,7497.6
320.999023438,7470.65
321.297027588,7437.825
321.595001221,7426.6
321.892913818,7383.175
322.190887451,7315.1
322.488830566,7268.65
322.786712646,7228.25
323.084625244,7165.95
323.382507324,7150.25
323.680358887,7081.125
323.978210449,7013.75
324.276062012,6956.725
324.573852539,6923.275
324.871643066,6864.625
325.169464111,6819.1
325.467224121,6758.0
325.764984131,6690.875
326.062744141,6633.35
326.360473633,6555.125
326.658203125,6513.025
326.955871582,6459.25
327.253570557,6385.975
327.551239014,6353.25
327.848907471,6272.275
328.146514893,6217.85
328.444152832,6159.525
328.741790771,6117.525
329.039367676,6078.45
329.336914062,6021.175
329.634521484,5968.35
329.932067871,5935.7
330.229553223,5826.725
330.527160645,5807.05
330.824615479,5750.925
331.12210083,5690.85
331.419586182,5602.125
331.717041016,5559.825
332.014465332,5486.925
332.311920166,5454.1
332.609313965,5394.95
332.906707764,5378.325
333.204101562,5388.35
333.501495361,5379.35
333.798828125,5434.7
334.096160889,5464.325
334.39352417,5529.125
334.690795898,5546.275
334.988098145,5601.325
335.285400391,5656.2
335.582641602,5640.6
335.879882812,5693.65
336.177124023,5699.625
336.474334717,5778.4
336.77154541,5771.7
337.068725586,5788.2
337.365905762,5783.975
337.66305542,5791.375
337.960205078,5808.525
338.257324219,5833.8
338.554443359,5833.925
338.8515625,5847.275
339.148590088,5865.275
339.445648193,5871.65
339.742736816,5848.95
340.039764404,5838.55
340.336761475,5796.275
340.63381958,5743.175
340.930755615,5710.575
341.227722168,5669.475
341.524688721,5561.85
341.821624756,5544.025
342.118560791,5582.475
342.415496826,5649.975
342.712402344,5763.475
343.009246826,5890.3
343.306121826,5987.6
343.602966309,6038.625
343.899810791,6112.825
344.196624756,6194.625
344.493438721,6214.225
344.79019165,6255.025
345.086975098,6301.8
345.383758545,6335.05
345.680480957,6309.075
345.977203369,6350.625
346.273956299,6379.975
346.570617676,6364.775
346.86730957,6382.775
347.163970947,6363.975
347.460601807,6403.375
347.757232666,6405.75
348.053894043,6393.925
348.350463867,6313.15
348.647064209,6303.05
348.943634033,6296.375
349.24017334,6313.8
349.536712646,6263.525
349.833251953,6271.075
350.129760742,6259.15
350.426208496,6265.275
350.722747803,6225.225
351.019195557,6203.3
351.315612793,6176.9
351.612060547,6145.025
351.908508301,6114.425
352.204864502,6048.1
352.501281738,6021.775
352.797637939,5952.575
353.093963623,5886.95
353.390319824,5819.65
353.686645508,5747.15
353.982940674,5670.2
354.27923584,5654.525
354.575531006,5628.2
354.871765137,5606.125
355.167999268,5582.35
355.464233398,5583.4
355.760437012,5584.05
356.056640625,5576.825
356.352813721,5599.45
356.648956299,5591.95
356.945129395,5609.35
357.241271973,5596.2
357.537384033,5624.3
357.833496094,5564.825
358.129577637,5562.65
358.425628662,5512.925
358.721679688,5510.5
359.017730713,5508.7
359.313720703,5440.45
359.609710693,5424.75
359.905761719,5380.025
360.201721191,5352.625
360.497650146,5289.45
360.793609619,5274.525
361.089538574,5216.8
361.385437012,5134.575
361.681365967,5086.825
361.977233887,5054.7
362.273071289,5017.225
362.568908691,4910.425
362.864746094,4795.2
363.160552979,4671.4
363.456359863,4520.875
363.752166748,4394.45
364.047912598,4329.0
364.343658447,4306.675
364.639434814,4341.35
364.935119629,4339.325
365.230834961,4393.575
365.526550293,4448.05
365.822174072,4465.425
366.117858887,4453.1
366.413482666,4486.725
366.709075928,4524.875
367.004730225,4442.15
367.300292969,4432.0
367.595855713,4488.025
367.891448975,4374.475
368.186981201,4280.35
368.482513428,4251.15
368.778015137,4232.6
369.073547363,4214.8
369.36895752,4233.8
369.664428711,4126.325
369.95993042,4014.15
370.255310059,3988.15
370.550720215,3962.15
370.846160889,3939.55
371.14151001,3902.4
371.436859131,3887.175
371.73223877,3864.5
372.027557373,3836.0
372.322875977,3768.2
372.618164062,3768.275
372.913482666,3712.525
373.208709717,3701.25
373.503967285,3659.35
373.799194336,3609.075
374.094421387,3613.9
374.389648438,3588.625
374.684844971,3589.0
374.979980469,3609.975
375.275146484,3631.175
375.570281982,3641.6
375.865386963,3651.15
376.160522461,3603.175
376.455596924,3630.6
376.750640869,3717.45
377.045715332,3696.375
377.340759277,3735.7
377.635772705,3768.15
377.93081665,3824.325
378.225769043,3893.1
378.520751953,3933.2
378.815734863,3901.125
379.110656738,4048.025
379.405548096,4205.525
379.700500488,4049.2
379.995391846,3887.175
380.290252686,3928.65
380.585083008,4013.65
380.879974365,4059.925
381.17477417,3986.375
381.469543457,3929.775
381.764404297,3909.1
382.059143066,3932.2
382.353912354,4007.375
382.648651123,4085.45
382.943389893,4058.9
383.238067627,3915.95
383.532775879,3910.5
383.827484131,3873.35
384.12210083,3875.15
384.416778564,3817.25
384.711425781,3732.0
385.006011963,3763.05
385.300628662,3745.0
385.595184326,3812.225
385.88973999,3892.675
386.184295654,4006.975
386.478820801,4064.65
386.77331543,4163.275
387.067840576,4268.0
387.362335205,4323.35
387.656768799,4406.625
387.951202393,4434.475
388.245635986,4515.475
388.540039062,4578.425
388.834472656,4634.95
389.128875732,4532.55
389.423187256,4329.85
389.717559814,4281.375
390.011871338,4365.3
390.306182861,4404.45
390.600463867,4429.4
390.894775391,4492.3
391.189025879,4511.55
391.48324585,4494.7
391.777526855,4554.2
392.071685791,4734.825
392.365875244,4842.825
392.660064697,4899.575
392.95425415,5187.675
393.248382568,5201.4
393.542510986,4748.225
393.836608887,4593.45
394.130706787,4600.95
394.424804688,4533.725
394.71887207,4671.575
395.012878418,4641.55
395.306915283,4528.525
395.600921631,4483.775
395.894927979,4441.275
396.188903809,4490.625
396.482879639,4512.35
396.776794434,4681.7
397.070739746,4650.225
397.364654541,4681.45
397.658538818,5035.25
397.952423096,5049.85
398.246307373,5003.15
398.540100098,5515.725
398.833953857,5409.725
399.127746582,4937.225
399.421508789,4974.3
399.715301514,4912.175
400.009063721,4827.85
400.30279541,4676.725
400.596496582,4598.2
400.890258789,4745.6
401.183929443,4843.875
401.47756958,4742.6
401.771240234,4528.7
402.064880371,4508.9
402.35848999,4591.775
402.652130127,4478.4
402.945678711,4541.975
403.239257812,4497.425
403.532775879,4436.05
403.82635498,4491.2
404.119842529,4413.9
404.413360596,4395.575
404.706848145,4437.85
405.000274658,4391.125
405.293762207,4448.975
405.587188721,4509.975
405.880584717,4344.225
406.17401123,4202.1
406.467407227,3993.825
406.760742188,4027.675
407.054107666,4041.775
407.347442627,3977.0
407.640716553,3970.8
407.934051514,4028.1
408.227325439,4093.3
408.520568848,4295.325
408.813842773,4345.375
409.107086182,4171.05
409.400238037,4124.475
409.693450928,4063.5
409.986633301,4192.95
410.279754639,4088.375
410.572875977,3820.275
410.86605835,3757.375
411.159118652,3778.4
411.452209473,3801.075
411.745330811,3662.7
412.038360596,3596.075
412.331390381,3608.85
412.624420166,3667.425
412.917388916,3573.45
413.210388184,3412.9
413.503387451,3385.525
413.796295166,3278.125
414.089233398,3127.275
414.382141113,3050.875
414.675048828,3030.55
414.967926025,3063.075
415.260803223,3010.675
415.55368042,3037.75
415.846466064,3005.55
416.139282227,3073.925
416.432098389,3194.0
416.724853516,3193.25
417.017608643,3113.575
417.31036377,3138.225
417.603088379,3270.325
417.895782471,3228.95
418.188476562,3206.075
418.481140137,3274.275
418.773803711,3324.125
419.066436768,3291.875
419.359039307,3356.575
419.651641846,3366.25
419.944244385,3372.5
420.236816406,3327.175
420.529327393,3511.275
420.821899414,3601.4
421.114379883,3518.375
421.406860352,3765.15
421.699371338,3973.9
421.991821289,3933.7
422.284240723,3752.225
422.576721191,3593.6
422.869110107,3495.45
423.161468506,3468.8
423.453857422,3498.2
423.74621582,3375.775
424.038543701,3257.775
424.330871582,3240.825
424.623168945,3169.85
424.915435791,3282.8
425.207702637,3240.475
425.499969482,3199.55
425.792205811,3151.45
426.084411621,2903.725
426.376617432,2989.325
426.668762207,3058.8
426.9609375,2950.075
427.253082275,3069.05
427.545196533,3436.7
427.837310791,3191.325
428.129425049,2912.65
428.421447754,3117.325
428.713531494,3108.975
429.005554199,3091.4
429.297576904,3119.25
429.589599609,3507.425
429.881561279,3790.85
430.173522949,3590.575
430.465484619,3548.125
430.757415771,3608.175
431.049316406,3402.625
431.341186523,3191.675
431.633117676,3106.3
431.924957275,2806.45
432.21673584,2714.55
432.508636475,2851.55
432.800415039,2867.425
433.092163086,2777.55
433.383972168,2744.95
433.675689697,3396.775
433.967437744,3867.25
434.259155273,2963.65
434.550872803,2690.9
434.842498779,2736.725
435.134185791,2854.55
435.425842285,2869.45
435.717437744,2796.025
436.009063721,2630.6
436.30065918,2744.95
436.592224121,3074.025
436.883758545,2895.75
437.175323486,2646.525
437.466827393,2634.4
437.758331299,2648.95
438.049804688,2650.275
438.341247559,2726.925
438.63269043,2802.375
438.924163818,2782.95
439.215515137,2742.575
439.50692749,2652.95
439.798309326,2654.25
440.089660645,2672.1
440.380981445,2579.2
440.672332764,2584.25
440.963623047,2836.775
441.254882812,3242.825
441.546173096,3422.55
441.837402344,3181.95
442.128631592,3009.55
442.41986084,2993.6
442.711029053,2859.45
443.002197266,2941.95
443.293365479,3107.4
443.584503174,3239.125
443.875610352,3204.425
444.166717529,2960.55
444.457794189,3011.75
444.748840332,2998.675
445.039916992,2959.875
445.330932617,3034.075
445.621948242,2896.8
445.912963867,2714.875
446.203918457,2924.6
446.494812012,3135.425
446.785827637,2943.6
447.076721191,2788.6
447.367584229,2764.475
447.658447266,2748.275
447.949371338,2783.55
448.24017334,2680.725
448.530975342,2625.375
448.821838379,2761.65
449.112579346,2825.2
449.40335083,2782.35
449.694152832,2810.75
449.984863281,2814.075
450.27557373,2746.425
450.56628418,2811.7
450.856933594,2825.775
451.147583008,2681.35
451.438262939,2578.375
451.728881836,2760.725
452.019470215,2858.075
452.310089111,2661.6
452.600646973,2689.225
452.891174316,2739.925
453.181732178,2581.575
453.472229004,2461.15
453.762695312,2548.95
454.053222656,2581.575
454.343658447,2472.9
454.634063721,2406.75
454.924530029,2573.2
455.214935303,2712.95
455.505279541,2758.325
455.795715332,2635.075
456.086029053,2453.2
456.376312256,2434.525
456.666687012,2463.425
456.956939697,2572.0
457.247192383,2550.4
457.537445068,2625.525
457.827728271,2798.275
458.117919922,2741.55
458.408081055,2662.025
458.698303223,2823.375
458.988433838,2775.25
459.278564453,2609.45
459.568725586,2875.975
459.858825684,2972.725
460.148864746,2671.925
460.438995361,2642.95
460.729034424,2694.7
461.019042969,2704.6
461.309082031,2887.475
461.599060059,2776.3
461.889007568,2366.575
462.179016113,2189.375
462.468933105,2405.05
462.75881958,2511.45
463.048736572,2284.55
463.338592529,2511.8
463.628448486,2856.925
463.918365479,2577.2
464.2081604,2728.025
464.497924805,2698.3
464.787780762,2812.8
465.077514648,3095.9
465.367218018,2738.95
465.657012939,2941.875
465.946685791,3308.0
466.236358643,2936.425
466.526092529,2461.425
466.815734863,2463.375
467.105316162,2385.725
467.394927979,2411.175
467.684570312,2279.975
467.974121094,2356.95
468.263671875,2457.375
468.553222656,2255.15
468.842773438,2169.75
469.132232666,2060.775
469.42175293,2077.325
469.711212158,2056.8
470.000640869,1938.025
470.290100098,1995.75
470.579498291,2039.375
470.868835449,2026.525
471.158294678,1992.75
471.447601318,1975.825
471.736907959,2043.25
472.026275635,2106.625
472.315551758,2079.85
472.604797363,2079.625
472.894104004,2217.3
473.183319092,2305.275
473.47253418,2296.85
473.761779785,2288.8
474.05090332,2222.65
474.340087891,2185.025
474.629241943,2112.9
474.918365479,2268.825
475.207427979,2532.8
475.496551514,2556.7
475.785614014,2302.625
476.074645996,2128.2
476.363708496,2206.55
476.652679443,2347.775
476.941650391,2172.975
477.230682373,2032.7
477.519622803,2018.6
477.808502197,2166.85
478.097412109,2418.975
478.386352539,2381.925
478.675201416,2120.625
478.964050293,2030.225
479.25289917,2207.975
479.541717529,2256.225
479.830474854,2106.125
480.11932373,2430.85
480.408050537,2604.775
480.696777344,2239.025
480.985534668,2119.05
481.274200439,2216.475
481.562866211,2435.625
481.851593018,2450.3
482.140197754,2405.7
482.428833008,2254.95
482.717468262,2056.35
483.006011963,2092.15
483.294586182,2192.175
483.5831604,2248.25
483.871673584,2113.675
484.16015625,2231.825
484.448699951,2449.875
484.7371521,2508.475
485.02557373,2506.875
485.314025879,2253.2
485.602416992,3482.15
485.890777588,12448.3
486.179199219,11127.55
486.467559814,2972.925
486.755859375,2147.7
487.044219971,2508.2
487.332519531,2678.7
487.620758057,2304.35
487.908966064,2069.8
488.197265625,1880.15
488.485473633,1788.125
488.773651123,1893.975
489.061859131,1889.8
489.350006104,1847.2
489.638122559,1783.475
489.926300049,1806.35
490.214355469,1758.225
490.502441406,1714.1
490.790527344,1654.975
491.078552246,1827.75
491.366546631,1829.4
491.654602051,1616.125
491.942565918,1682.625
492.230499268,1702.675
492.518493652,1683.85
492.806396484,1725.875
493.094268799,1634.65
493.382202148,1673.45
493.670074463,1778.825
493.957885742,1644.3
494.245727539,1630.2
494.533508301,1794.05
494.821289062,1692.025
495.109100342,1545.375
495.396850586,1503.45
495.684539795,1452.625
495.972290039,1652.4
496.25994873,1959.7
496.547607422,1965.775
496.835296631,1800.375
497.122894287,1506.675
497.410522461,1443.425
497.6980896,1436.25
497.985687256,1408.7
498.273223877,1500.075
498.560760498,1559.625
498.848266602,1586.675
499.135772705,1556.8
499.423217773,1592.125
499.710693359,1698.45
499.998138428,1644.75
500.285522461,1477.1
500.572937012,1409.8
500.860290527,1467.275
501.147644043,1551.575
501.434997559,1755.625
501.722290039,1630.9
502.00958252,1426.45
502.296875,1675.925
502.584106445,1655.55
502.871337891,1490.35
503.158599854,1553.775
503.445770264,1625.925
503.732910156,1600.8
504.020141602,1437.675
504.307220459,1416.025
504.594329834,1448.7
504.881469727,1391.675
505.168518066,1452.325
505.455535889,1519.425
505.742614746,1412.9
506.029632568,1343.075
506.316589355,1525.95
506.603637695,1592.125
506.890563965,1419.8
507.177459717,1264.725
507.464385986,1184.575
507.751312256,1395.925
508.038146973,1462.575
508.325012207,1347.875
508.611877441,1396.55
508.898681641,1404.5
509.185424805,1264.8
509.472259521,1227.55
509.759002686,1306.825
510.045715332,1341.75
510.332458496,1285.55
510.619140625,1338.4
510.905761719,1257.75
511.192504883,1246.85
511.479095459,1289.05
511.765686035,1244.125
512.052307129,1160.625
512.338928223,1122.1
512.625427246,1162.125
512.91204834,1233.225
513.198486328,1199.875
513.484985352,1176.125
513.77142334,1107.0
514.057922363,1145.525
514.344299316,1142.35
514.63079834,1112.35
514.917175293,1095.475
515.203552246,1015.925
515.489868164,988.225
515.776245117,1098.5
516.0625,1147.925
516.348815918,1065.0
516.635070801,1082.65
516.921325684,1136.375
517.207580566,1090.4
517.493774414,993.75
517.779968262,1010.0
518.066101074,1037.575
518.352294922,1002.925
518.638366699,1010.2
518.924499512,1078.95
519.210632324,1146.0
519.496643066,1106.325
519.782714844,1024.4
520.068786621,992.775
520.354736328,953.35
520.640686035,915.925
520.926757812,958.7
521.212646484,1037.45
521.498535156,1036.675
521.784484863,992.375
522.0703125,922.125
522.356262207,943.25
522.642089844,1013.775
522.927856445,1016.45
523.213684082,1007.55
523.499511719,993.05
523.78527832,1036.55
524.070983887,1083.825
524.356750488,1054.725
524.64239502,1027.025
524.928039551,1022.45
525.213806152,1035.575
525.499389648,1017.225
525.784973145,1052.775
526.070617676,1087.8
526.356140137,1065.975
526.641723633,1063.675
526.927307129,1119.725
527.212768555,1130.675
527.498291016,1105.15
527.783752441,1118.55
528.069213867,1095.375
528.354675293,1115.125
528.640014648,1261.325
528.925476074,1317.25
529.21081543,1263.825
529.496154785,1234.15
529.781555176,1194.025
530.066833496,1224.0
530.352050781,1236.625
530.637390137,1233.325
530.922607422,1221.325
531.207824707,1224.325
531.493041992,1212.2
531.778198242,1271.75
532.063354492,1245.275
532.348571777,1204.375
532.633666992,1228.45
532.918762207,1295.15
533.203857422,1371.425
533.488891602,1398.3
533.773925781,1347.025
534.059020996,1324.475
534.343933105,1354.05
534.628967285,1328.275
534.91394043,1353.475
535.198852539,1350.325
535.483703613,1332.0
535.768676758,1274.525
536.053527832,1282.875
536.338317871,1247.875
536.62322998,1194.425
536.90802002,1166.25
537.192810059,1189.875
537.477539062,1249.8
537.762329102,1295.325
538.047058105,1336.925
538.331726074,1371.95
538.616455078,1349.875
538.901123047,1329.7
539.18572998,1382.825
539.470397949,1376.9
539.755004883,1370.0
540.039550781,1336.325
540.32409668,1287.75
540.608703613,1328.65
540.893188477,1425.15
541.17767334,1442.2
541.462158203,1445.275
541.746643066,1399.325
542.031066895,1428.4
542.315429688,1464.95
542.59979248,1468.975
542.884216309,1452.6
543.168579102,1450.225
543.452941895,1441.15
543.737243652,1507.525
544.021484375,1549.975
544.305725098,1538.65
544.590026855,1517.35
544.874267578,1532.65
545.158447266,1587.325
545.442626953,1514.475
545.726806641,1422.825
546.010925293,1457.65
546.29510498,1482.65
546.579162598,1473.55
546.863220215,1510.85
547.147277832,1575.975
547.431335449,1646.95
547.715332031,1699.125
547.999328613,1824.825
548.283325195,1824.1
548.567260742,1674.425
548.851135254,1665.45
549.135070801,1630.25
549.419006348,1546.925
549.702819824,1626.475
549.986755371,1705.075
550.270507812,1670.0
550.554321289,1701.35
550.83807373,1723.325
551.121826172,1685.775
551.405517578,1701.725
551.689331055,1807.675
551.973022461,2020.275
552.256652832,2077.825
552.540344238,1991.375
552.823974609,1970.775
553.107543945,1955.3
553.391174316,2006.625
553.674743652,2068.15
553.958251953,2063.675
554.241821289,2077.7
554.525268555,2020.7
554.808776855,2009.75
555.092285156,2202.325
555.375671387,2281.5
555.659057617,2276.95
555.942504883,2296.925
556.225891113,2340.425
556.509216309,2288.725
556.792541504,2214.575
557.075866699,2289.15
557.359130859,2330.125
557.64239502,2313.325
557.92565918,2382.9
558.208862305,2365.5
558.49206543,2306.0
558.77532959,2326.9
559.058410645,2375.55
559.341552734,2350.025
559.624694824,2405.35
559.907775879,2487.725
560.190856934,2600.375
560.473937988,2599.425
560.756896973,2637.55
561.039978027,2662.125
561.322937012,2612.875
561.605895996,2598.75
561.88885498,2570.75
562.171813965,2589.85
562.454650879,2560.975
562.737548828,2597.175
563.020446777,2663.65
563.303283691,2690.175
563.58605957,2721.2
563.868896484,2746.55
564.151672363,2780.45
564.434387207,2824.125
564.717163086,2785.525
564.99987793,2833.0
565.282531738,2887.8
565.565185547,2817.875
565.847839355,2835.1
566.130432129,2941.725
566.413085938,2924.4
566.695678711,2948.475
566.978149414,3056.475
567.260681152,3184.65
567.543273926,3266.15
567.825744629,3156.35
568.108154297,3209.075
568.390686035,3321.675
568.673095703,3446.775
568.955505371,3479.175
569.237854004,3526.0
569.520202637,3777.65
569.802490234,3970.225
570.084838867,3959.1
570.367126465,3806.075
570.649414062,3802.575
570.93170166,4153.025
571.213928223,4227.0
571.496154785,3984.075
571.778381348,4204.75
572.06048584,4441.75
572.342590332,4025.625
572.624755859,3676.075
572.906860352,3751.925
573.188903809,4382.9
573.470947266,4627.8
573.752990723,4407.375
574.03503418,4523.975
574.317016602,4875.275
574.598937988,4685.975
574.88092041,4561.275
575.162841797,4738.05
575.444763184,4376.775
575.726623535,4138.175
576.008483887,4170.05
576.290344238,4554.5
576.572143555,4735.075
576.853881836,4802.05
577.135681152,4722.525
577.417419434,4769.125
577.699157715,5608.45
577.980895996,5775.925
578.262573242,5152.25
578.544128418,4683.6
578.825866699,4620.375
579.107421875,4331.525
579.388977051,4493.375
579.670593262,4899.725
579.952148438,4724.65
580.233642578,4832.175
580.515197754,4935.025
580.796691895,4644.05
581.078125,4820.9
581.359619141,6297.225
581.640991211,6352.5
581.922363281,5489.3
582.203796387,5543.5
582.485107422,5187.275
582.766418457,4806.3
583.047790527,4661.65
583.329040527,4554.525
583.610290527,4427.95
583.891540527,4539.55
584.172790527,4848.8
584.453918457,4862.225
584.735107422,4928.2
585.016235352,5341.05
585.297363281,5314.075
585.578552246,5123.225
585.859619141,5060.85
586.140625,4850.925
586.421630859,4720.6
586.702697754,4739.9
586.983642578,4975.05
587.264648438,5157.175
587.545654297,5072.45
587.826477051,5034.55
588.107421875,4856.95
588.388305664,4884.775
588.669189453,4984.725
588.950012207,4826.9
589.230834961,4758.6
589.511657715,4845.3
589.792358398,4918.25
590.073120117,4925.15
590.353881836,4886.025
590.63458252,4907.825
590.915283203,4869.05
591.195922852,4847.15
591.4765625,4900.3
591.757202148,4958.525
592.037780762,4933.65
592.31829834,4936.75
592.598937988,5156.275
592.879394531,5316.95
593.159912109,5235.525
593.440429688,5166.075
593.720825195,5141.6
594.001281738,5118.9
594.281677246,5034.075
594.562072754,5055.475
594.842407227,5166.975
595.122802734,5191.45
595.403137207,5180.275
595.683410645,5152.725
595.963623047,5138.2
596.243896484,5110.65
596.524169922,5115.975
596.804382324,5118.625
597.084533691,5151.5
597.364746094,5204.225
597.644836426,5200.125
597.924987793,5187.125
598.205078125,5153.45
598.485107422,5204.45
598.765197754,5288.1
599.045227051,5341.5
599.325195312,5256.625
599.605224609,5205.75
599.885192871,5251.15
600.165100098,5293.975
600.445007324,5241.6
600.724914551,5230.025
601.004760742,5280.225
601.284667969,5284.675
601.56451416,5247.8
601.844238281,5253.95
602.124084473,5268.35
602.403808594,5271.375
602.683532715,5292.0
602.963256836,5285.825
603.242919922,5336.8
603.522583008,5373.15
603.802246094,5325.8
604.081848145,5317.825
604.36138916,5291.675
604.641052246,5310.525
604.920532227,5277.725
605.200073242,5306.2
605.479614258,5341.575
605.759094238,5366.85
606.038574219,5369.25
606.317932129,5293.45
606.597412109,5277.0
606.87677002,5313.275
607.15612793,5367.9
607.435546875,5348.425
607.714782715,5371.675
607.99407959,5334.725
608.273376465,5329.125
608.552612305,5339.675
608.831848145,5347.1
609.111083984,5347.275
609.390258789,5320.575
609.669433594,5309.25
609.948608398,5375.225
610.227722168,5339.575
610.506713867,5293.525
610.785888672,5330.675
611.064880371,5296.5
611.34387207,5310.525
611.622924805,5326.65
611.901916504,5325.675
612.180847168,5265.05
612.459777832,5268.075
612.738647461,5273.4
613.01751709,5246.425
613.296447754,5200.3
613.575317383,5174.425
613.854064941,5135.0
614.132873535,5046.425
614.411621094,4991.2
614.690368652,4943.7
614.969177246,4897.825
615.247802734,4818.35
615.526489258,4819.65
615.805175781,4688.4
616.08380127,4574.1
616.362365723,4494.35
616.640991211,4469.425
616.919555664,4405.35
617.198059082,4505.775
617.4765625,4795.9
617.755126953,4914.475
618.033569336,4944.025
618.311950684,4930.225
618.590454102,4921.075
618.868774414,4906.825
619.147155762,4907.025
619.425598145,4909.075
619.703857422,4914.925
619.982177734,4909.475
620.260498047,4900.125
620.538757324,4898.375
620.816955566,4858.45
621.095214844,4819.65
621.373413086,4835.3
621.651550293,4905.2
621.929748535,4932.475
622.207824707,4896.2
622.485900879,4936.35
622.764038086,4910.075
623.042053223,4952.45
623.320007324,4980.475
623.598083496,4962.475
623.876037598,4934.675
624.153991699,4971.9
624.432006836,4968.075
624.709838867,4988.0
624.987731934,4946.8
625.265563965,4961.65
625.543395996,4985.25
625.821228027,5026.5
626.098999023,5017.6
626.376831055,5060.6
626.654541016,5077.2
626.932250977,5093.375
627.209960938,5148.875
627.487670898,5162.325
627.765319824,5176.4
628.04296875,5191.175
628.320495605,5210.25
628.598083496,5188.55
628.875671387,5225.65
629.153259277,5260.55
629.430725098,5296.975
629.708251953,5290.7
629.985656738,5302.875
630.263122559,5349.025
630.540588379,5349.1
630.817932129,5366.175
631.095275879,5410.4
631.372680664,5434.875
631.649963379,5481.95
631.927246094,5516.15
632.204589844,5526.3
632.481811523,5598.3
632.759033203,5683.45
633.036254883,5696.225
633.313415527,5756.125
633.590576172,5835.975
633.867736816,5888.025
634.144836426,5965.05
634.421875,6010.375
634.698913574,6057.45
634.976013184,6103.625
635.252990723,6149.85
635.529968262,6203.625
635.807006836,6265.0
636.08392334,6240.925
636.360839844,6161.5
636.637756348,6049.15
636.914611816,6021.8
637.191467285,5999.925
637.468261719,6089.025
637.745056152,6040.325
638.021789551,6060.75
638.298583984,6083.975
638.575317383,6091.35
638.851989746,6097.1
639.12878418,6103.125
639.405395508,6105.025
639.682006836,6129.325
639.958618164,6135.55
640.235229492,6107.075
640.511779785,6147.35
640.788330078,6113.425
641.064880371,6106.625
641.341308594,6076.375
641.617797852,6093.225
641.894226074,6064.675
642.170654297,6069.375
642.44708252,6115.325
642.723388672,6090.9
642.999755859,6090.975
643.276123047,6080.525
643.552429199,6064.725
643.828674316,6062.775
644.104919434,6042.475
644.381164551,6024.5
644.657348633,6061.825
644.933532715,6021.6
645.209716797,6013.35
645.485839844,6013.175
645.761901855,6014.275
646.038024902,5990.225
646.314086914,6017.6
646.590087891,6006.725
646.866149902,6022.925
647.142150879,5959.5
647.41809082,5925.025
647.694030762,5963.55
647.969970703,5930.4
648.245788574,5976.2
648.521728516,5933.15
648.797546387,5934.775
649.073303223,5963.15
649.349182129,5926.1
649.624938965,5907.175
649.900634766,5928.5
650.176391602,5911.15
650.452087402,5896.125
650.727783203,5889.15
651.003479004,5860.175
651.279052734,5851.05
651.554626465,5861.45
651.83026123,5838.225
652.105773926,5874.825
652.381286621,5815.175
652.656860352,5813.8
652.932312012,5854.6
653.207763672,5831.9
653.483215332,5863.85
653.758605957,5834.125
654.033935547,5840.05
654.309326172,5827.075
654.584716797,5850.0
654.859985352,5835.075
655.135253906,5850.65
655.410583496,5838.7
655.685791016,6746.4
655.9609375,10528.7
656.236206055,10284.3
656.511291504,6788.3
656.786437988,5941.4
657.061645508,5849.125
657.336669922,5816.575
657.611694336,5863.45
657.886779785,5876.3
658.161804199,5897.775
658.436828613,5838.975
658.711791992,5852.975
658.986755371,5867.225
659.261657715,5875.175
659.536621094,5854.65
659.811401367,5866.225
660.086303711,5875.3
660.36114502,5869.425
660.635864258,5850.525
660.910644531,5868.275
661.185424805,5864.775
661.460205078,5883.4
661.734863281,5882.725
662.009521484,5875.55
662.284179688,5883.15
662.558776855,5921.1
662.833435059,5914.5
663.108032227,5910.925
663.382568359,5885.925
663.657043457,5936.4
663.93157959,5944.425
664.206054688,5924.9
664.48046875,5970.225
664.755004883,5966.775
665.02935791,5969.25
665.303710938,5984.7
665.578125,5972.875
665.852416992,5981.45
666.126708984,5959.675
666.401062012,5972.625
666.675292969,6015.3
666.949462891,5991.625
667.223754883,6000.15
667.497924805,6028.075
667.772094727,6012.95
668.046264648,5972.775
668.3203125,6048.5
668.594421387,6042.325
668.868469238,6041.4
669.14251709,6013.275
669.416503906,6053.275
669.690551758,6059.3
669.964477539,6033.9
670.23840332,6029.525
670.512329102,6046.375
670.786254883,6003.4
671.060058594,6051.25
671.333984375,6058.925
671.607788086,6063.8
671.881530762,6061.95
672.155334473,6084.225
672.429077148,6085.95
672.702758789,6070.65
672.97644043,6058.3
673.25012207,6047.325
673.523742676,6047.575
673.797302246,6039.925
674.070922852,6099.925
674.344482422,6073.825
674.618041992,6083.775
674.891601562,6049.275
675.165100098,6052.375
675.438476562,6072.85
675.711975098,6059.55
675.985412598,6041.775
676.258789062,6025.35
676.532165527,6039.275
676.805480957,6050.95
677.078796387,6060.225
677.352111816,6063.2
677.625366211,6043.95
677.898620605,6018.45
678.171875,6044.95
678.445007324,6049.4
678.718200684,6072.35
678.991394043,6049.275
679.264404297,6030.975
679.537536621,6080.975
679.81060791,6049.725
680.083679199,6038.8
680.356689453,6038.0
680.629699707,6034.4
680.902648926,6011.45
681.175598145,6052.85
681.448547363,6068.625
681.721435547,6023.925
681.99420166,6013.95
682.267150879,5981.6
682.539916992,6016.375
682.812744141,6002.225
683.085510254,5978.825
683.358215332,5998.675
683.63092041,5980.0
683.903625488,5953.975
684.176330566,5946.65
684.448913574,5922.6
684.721557617,5932.8
684.99420166,5976.075
685.266662598,5938.625
685.539245605,5939.475
685.811767578,5942.9
686.084289551,5954.575
686.356689453,5971.225
686.629150391,5984.975
686.901550293,5974.1
687.17401123,5991.35
687.446350098,5982.075
687.718688965,5974.175
687.990966797,6000.65
688.263305664,6006.075
688.535522461,5946.55
688.807739258,5958.875
689.079956055,5978.275
689.352172852,6003.2
689.624328613,5959.625
689.896484375,6000.0
690.168518066,5981.975
690.440612793,5972.45
690.71270752,5983.325
690.984741211,5995.425
691.256713867,5983.575
691.528747559,5964.825
691.800720215,5967.375
692.072631836,5974.75
692.344543457,5997.2
692.616394043,5987.075
692.888244629,5994.675
693.160095215,5999.575
693.431945801,5985.55
693.703674316,5960.125
693.975463867,5951.7
694.247131348,5989.15
694.518859863,5959.275
694.790588379,5987.875
695.062255859,5966.5
695.33380127,5947.35
695.60546875,5964.95
695.87701416,5940.325
696.148498535,5958.175
696.42010498,5984.325
696.691589355,5968.925
696.96307373,5979.3
697.234558105,6007.475
697.50592041,5986.05
697.777282715,5967.5
698.048706055,5966.725
698.320068359,5978.925
698.591308594,5960.95
698.862670898,5948.725
699.133972168,5993.525
699.405151367,5934.075
699.676391602,5985.25
699.947570801,5946.325
700.21875,5953.9
700.489868164,5938.95
700.761047363,5939.925
701.032104492,5945.75
701.303100586,5918.475
701.57421875,5942.525
701.845214844,5921.025
702.116149902,5943.975
702.387207031,5916.025
702.65814209,5905.35
702.928955078,5947.425
703.199951172,5897.35
703.47076416,5883.675
703.741577148,5875.05
704.012451172,5900.4
704.28314209,5891.475
704.553955078,5870.6
704.824707031,5917.7
705.095397949,5925.25
705.366027832,5913.825
705.63671875,5920.975
705.907348633,5860.45
706.17791748,5872.025
706.448486328,5879.3
706.719055176,5885.9
706.989562988,5870.15
707.260131836,5895.425
707.530517578,5896.1
707.800964355,5886.575
708.071411133,5845.5
708.341796875,5835.4
708.612182617,5819.125
708.882446289,5798.9
709.152893066,5813.425
709.423156738,5800.625
709.693359375,5795.175
709.963623047,5790.4
710.233825684,5812.9
710.503967285,5761.25
710.774169922,5759.6
711.044311523,5762.375
711.31439209,5740.775
711.584533691,5765.975
711.854553223,5741.55
712.124572754,5752.65
712.39465332,5730.875
712.664611816,5750.2
712.934509277,5771.725
713.204467773,5746.775
713.474365234,5759.05
713.74420166,5737.475
714.014099121,5738.175
714.283874512,5726.3
714.553710938,5752.3
714.823486328,5741.6
715.093200684,5718.075
715.362915039,5712.3
715.632629395,5700.075
715.902282715,5674.925
716.171875,5648.575
716.441589355,5681.825
716.711181641,5650.05
716.980712891,5669.775
717.250244141,5643.125
717.519775391,5631.125
717.78918457,5627.975
718.058654785,5646.175
718.328125,5672.65
718.597473145,5632.75
718.866882324,5632.825
719.136230469,5636.0
719.405578613,5648.25
719.674865723,5655.65
719.944152832,5620.8
720.213439941,5590.5
720.48260498,5607.975
720.75177002,5600.425
721.020996094,5618.075
721.290100098,5618.2
721.559204102,5592.475
721.828308105,5592.45
722.097351074,5589.025
722.366455078,5590.1
722.635437012,5566.325
722.904418945,5542.75
723.173400879,5541.6
723.442321777,5574.025
723.711181641,5531.35
723.980102539,5547.7
724.248962402,5556.775
724.51776123,5524.925
724.786560059,5532.15
725.055358887,5541.65
725.324035645,5515.65
725.592834473,5491.825
725.86151123,5489.15
726.130187988,5485.35
726.398803711,5462.375
726.667419434,5482.975
726.935974121,5479.075
727.204528809,5438.625
727.473083496,5423.2
727.741638184,5413.125
728.010070801,5399.625
728.278564453,5393.525
728.546936035,5413.225
728.815368652,5340.525
729.08380127,5302.4
729.352111816,5278.45
729.620361328,5221.5
729.88873291,5259.5
730.156982422,5291.4
730.425231934,5276.925
730.693481445,5273.85
730.961669922,5309.325
731.229797363,5318.125
731.49798584,5342.225
731.766113281,5355.05
732.034118652,5398.95
732.302246094,5416.75
732.570251465,5438.475
732.838256836,5455.725
733.106262207,5493.0
733.374145508,5489.625
733.642089844,5539.4
733.909973145,5553.4
734.177856445,5613.475
734.445678711,5648.4
734.713562012,5708.85
734.981323242,5695.025
735.249084473,5724.375
735.516845703,5829.375
735.784545898,5864.55
736.052185059,5864.3
736.319885254,5949.525
736.587524414,5977.8
736.855102539,6023.925
737.122619629,6100.55
737.390197754,6108.675
737.657714844,6153.975
737.925170898,6191.125
738.192749023,6251.775
738.460144043,6290.325
738.727539062,6304.225
738.994995117,6370.85
739.262329102,6420.5
739.529663086,6476.525
739.79699707,6489.95
740.06427002,6543.55
740.331481934,6561.8
740.598754883,6605.4
740.865905762,6625.55
741.133056641,6708.125
741.40032959,6723.525
741.667358398,6760.275
741.934448242,6788.675
742.201599121,6787.45
742.468566895,6852.55
742.735534668,6910.625
743.002563477,6925.425
743.26953125,6894.075
743.536437988,6945.15
743.803405762,7017.975
744.0703125,6987.2
744.337097168,7045.15
744.604003906,6993.2
744.870727539,7053.775
745.137512207,7065.725
745.40423584,7069.65
745.670959473,7050.0
745.93762207,7074.8
746.204284668,7086.175
746.470947266,7100.0
746.737548828,7090.6
747.004089355,7115.025
747.270751953,7111.225
747.53717041,7139.025
747.803710938,7079.65
748.070251465,7093.025
748.336608887,7076.925
748.603027344,7081.35
748.869445801,7089.225
749.135803223,7082.275
749.402099609,7078.675
749.668457031,7078.9
749.934753418,7036.625
750.20098877,7024.4
750.467224121,7061.675
750.733459473,7046.825
750.999572754,7011.375
751.26574707,6970.65
751.531860352,6991.125
751.797912598,6966.925
752.064025879,6940.575
752.330078125,6954.85
752.596069336,6936.4
752.862060547,6905.8
753.127990723,6925.025
753.393920898,6905.425
753.659912109,6883.775
753.925720215,6933.05
754.19152832,6907.1
754.457397461,6833.4
754.723144531,6822.1
754.988952637,6770.15
755.254699707,6808.875
755.520385742,6828.575
755.786071777,6804.0
756.051696777,6806.875
756.317382812,6766.625
756.582946777,6760.05
756.848510742,6769.175
757.114074707,6712.475
757.379577637,6728.2
757.645080566,6772.95
757.910583496,6765.575
758.175964355,6691.675
758.441345215,6696.925
758.706848145,6602.575
758.972106934,6636.475
759.237426758,6627.525
759.502807617,6652.725
759.768005371,6646.525
760.03326416,6605.275
760.298522949,6564.375
760.563659668,6609.7
760.828857422,6570.9
761.093994141,6585.525
761.359130859,6547.175
761.624206543,6549.1
761.889282227,6541.3
762.15423584,6525.8
762.419250488,6528.6
762.684265137,6487.65
762.949157715,6443.5
763.214050293,6459.8
763.479003906,6474.075
763.743835449,6457.65
764.008666992,6396.625
764.2734375,6401.075
764.538208008,6433.95
764.802978516,6437.85
765.067687988,6407.15
765.332397461,6398.65
765.597045898,6408.3
765.861694336,6375.15
766.126342773,6363.3
766.390930176,6364.425
766.655395508,6343.525
766.920043945,6308.6
767.184509277,6342.175
767.448974609,6329.5
767.713439941,6313.425
767.977783203,6261.175
768.2421875,6286.5
768.506591797,6278.65
768.770874023,6333.95
769.03515625,6298.65
769.299499512,6295.175
769.563720703,6309.95
769.827941895,6255.825
770.092163086,6260.25
770.356323242,6260.05
770.620483398,6262.975
770.88458252,6290.475
771.148681641,6282.65
771.412719727,6249.0
771.676757812,6262.4
771.940734863,6242.3
772.204711914,6235.925
772.468688965,6207.775
772.73260498,6208.1
772.996459961,6224.3
773.260314941,5538.425
773.524169922,743.125
773.787963867,138.75
774.051696777,122.85
774.315551758,119.675
774.579223633,122.725
774.842895508,118.2
775.106567383,121.575
775.370239258,119.8
775.633789062,123.625
775.897399902,124.475
776.160949707,118.55
776.424499512,123.8
776.687988281,123.925
776.951477051,127.1
777.214904785,121.525
777.47833252,121.075
