191.299911499,97.725
191.603515625,106.025
191.907119751,96.8
192.210693359,103.375
192.514251709,99.275
192.817810059,102.35
193.121368408,104.325
193.42489624,106.75
193.728408813,100.35
194.031936646,97.375
194.33543396,93.6
194.638916016,108.15
194.94241333,97.05
195.245880127,96.075
195.549331665,95.625
195.852767944,96.725
196.156204224,169.925
196.459625244,164.675
196.763015747,167.425
197.066436768,175.15
197.369812012,168.65
197.673187256,169.075
197.9765625,167.25
198.279922485,167.575
198.583251953,164.375
198.886581421,165.7
199.18989563,175.1
199.493209839,167.25
199.79649353,159.7
200.09979248,172.575
200.403076172,166.75
200.706314087,166.5
201.009567261,169.45
201.312820435,167.8
201.616027832,159.875
201.919235229,156.575
202.222457886,164.125
202.525634766,166.175
202.828826904,158.5
203.132003784,158.05
203.435150146,158.95
203.738296509,165.725
204.041412354,159.825
204.344558716,165.3
204.647659302,168.85
204.950759888,167.125
205.253845215,161.5
205.556930542,163.25
205.859985352,161.975
206.163024902,161.425
206.466079712,160.3
206.769104004,168.375
207.072113037,161.6
207.375137329,166.75
207.678131104,160.725
207.981109619,162.7
208.284088135,159.175
208.587036133,165.575
208.889984131,163.675
209.19291687,167.45
209.495849609,166.525
209.798751831,166.975
210.101654053,165.425
210.404556274,167.825
210.707427979,163.325
211.010269165,171.45
211.31312561,167.475
211.615982056,167.55
211.918807983,169.0
212.221618652,164.85
212.524429321,162.35
212.827224731,169.475
213.130004883,168.4
213.432769775,165.2
213.735534668,166.875
214.038269043,170.35
214.341003418,164.55
214.643737793,169.3
214.946456909,173.275
215.249145508,175.05
215.551834106,172.175
215.854507446,173.225
216.157165527,174.4
216.45980835,174.65
216.762451172,176.075
217.065078735,176.75
217.36769104,176.35
217.670303345,179.575
217.972885132,180.7
218.275466919,181.075
218.578048706,174.65
218.880599976,186.975
219.183120728,179.85
219.485656738,187.375
219.788192749,192.9
220.090682983,203.05
220.393188477,216.55
220.695663452,237.7
220.998138428,251.25
221.300582886,276.125
221.603042603,301.225
221.905487061,328.4
222.207901001,360.525
222.510299683,396.75
222.812728882,446.35
223.115097046,487.825
223.41746521,532.7
223.719848633,574.1
224.022171021,616.15
224.324508667,661.85
224.626846313,724.0
224.929168701,770.925
225.231460571,824.625
225.533737183,853.825
225.836013794,905.125
226.138290405,946.475
226.440536499,988.375
226.742767334,1030.8
227.044998169,1052.425
227.347213745,1102.3
227.649429321,1133.1
227.951629639,1133.475
228.253799438,1169.425
228.555953979,1200.45
228.858123779,1205.6
229.160263062,1232.775
229.462371826,1237.15
229.764511108,1251.2
230.066619873,1254.15
230.36869812,1276.0
230.670776367,1291.475
230.972854614,1310.45
231.274902344,1315.6
231.576950073,1336.425
231.878967285,1334.975
232.180999756,1356.475
232.48298645,1373.7
232.784988403,1387.6
233.086975098,1383.35
233.388946533,1403.225
233.69090271,1411.45
233.992858887,1424.475
234.294769287,1405.7
234.596694946,1420.65
234.898605347,1432.175
235.200500488,1439.9
235.502380371,1438.925
235.804244995,1436.9
236.106109619,1410.45
236.407958984,1425.8
236.709777832,1422.125
237.011581421,1411.05
237.313400269,1396.825
237.615203857,1392.05
237.916976929,1401.35
238.21875,1395.2
238.520507812,1398.275
238.822250366,1390.475
239.12399292,1378.925
239.425704956,1392.775
239.727401733,1368.375
240.02911377,1381.975
240.330780029,1373.15
240.632446289,1364.225
240.93409729,1357.675
241.23576355,1362.45
241.537384033,1366.9
241.839004517,1369.9
242.140594482,1369.125
242.442199707,1369.075
242.743774414,1367.05
243.045333862,1376.175
243.346923828,1371.225
243.648452759,1371.7
243.949966431,1365.575
244.251495361,1381.075
244.552993774,1390.05
244.854492188,1373.225
245.155975342,1379.075
245.457443237,1391.825
245.758880615,1384.125
246.060333252,1381.45
246.36177063,1371.0
246.66317749,1373.55
246.964569092,1359.325
247.265945435,1367.55
247.567337036,1355.5
247.86869812,1369.95
248.170059204,1374.275
248.471389771,1382.425
248.772705078,1378.325
249.074035645,1396.275
249.375335693,1411.3
249.676620483,1427.55
249.977890015,1434.6
250.279159546,1468.7
250.58039856,1495.3
250.881637573,1497.7
251.182876587,1524.15
251.484069824,1547.0
251.785263062,1573.8
252.086456299,1623.425
252.387619019,1636.8
252.688781738,1658.175
252.989929199,1695.125
253.291061401,1751.075
253.592178345,1770.275
253.893280029,1803.95
254.194366455,1839.9
254.49546814,1850.975
254.796524048,1875.975
255.097579956,1922.675
255.398620605,1942.025
255.699645996,2001.05
256.000640869,2001.225
256.30166626,2031.325
256.602661133,2078.375
256.903656006,2101.75
257.204589844,2133.85
257.505523682,2139.95
257.80645752,2184.6
258.107391357,2195.65
258.408294678,2199.9
258.709228516,2229.625
259.010070801,2225.7
259.310943604,2260.825
259.611846924,2268.1
259.912658691,2279.075
260.213500977,2282.0
260.514343262,2299.575
260.815124512,2301.275
261.115936279,2318.05
261.416717529,2330.325
261.717468262,2345.675
262.018218994,2359.05
262.318969727,2386.175
262.619689941,2408.2
262.920410156,2455.45
263.221130371,2491.275
263.521789551,2527.625
263.822479248,2584.775
264.123138428,2625.025
264.42376709,2658.9
264.72442627,2682.35
265.025054932,2697.75
265.325622559,2744.525
265.626251221,2756.0
265.926818848,2767.525
266.227386475,2771.325
266.527954102,2786.725
266.828460693,2825.925
267.12902832,2786.625
267.429534912,2795.7
267.730010986,2795.95
268.030517578,2792.1
268.330993652,2813.3
268.631439209,2818.6
268.931915283,2831.55
269.232299805,2824.275
269.532745361,2845.1
269.8331604,2830.0
270.133544922,2844.225
270.433929443,2864.025
270.734313965,2873.25
271.034637451,2900.475
271.334991455,2903.475
271.635314941,2961.425
271.935638428,2982.975
272.235931396,3030.3
272.536254883,3062.325
272.836486816,3108.55
273.136749268,3170.175
273.437011719,3249.15
273.737213135,3321.8
274.037445068,3374.325
274.337677002,3443.375
274.6378479,3524.875
274.938049316,3633.95
275.238220215,3696.4
275.538360596,3790.7
275.838500977,3850.725
276.138641357,3971.6
276.438751221,4015.1
276.738830566,4089.0
277.03894043,4165.125
277.338989258,4249.5
277.639038086,4343.3
277.939056396,4394.0
278.239105225,4467.525
278.539093018,4558.0
278.839141846,4595.925
279.139129639,4668.3
279.439086914,4757.625
279.739044189,4823.875
280.039001465,4878.575
280.338928223,4945.5
280.63885498,5009.05
280.938781738,5058.825
281.238647461,5111.875
281.538513184,5150.625
281.838409424,5221.775
282.138244629,5249.775
282.438079834,5285.125
282.737945557,5340.05
283.037719727,5378.55
283.337524414,5430.875
283.637298584,5454.225
283.937072754,5495.5
284.236816406,5516.4
284.536560059,5525.275
284.836303711,5592.475
285.136016846,5658.25
285.43572998,5689.875
285.735412598,5685.025
286.035064697,5721.275
286.334747314,5755.35
286.634368896,5794.925
286.933990479,5772.775
287.233642578,5769.625
287.533203125,5775.25
287.832824707,5753.175
288.132385254,5725.275
288.431945801,5647.75
288.731506348,5573.0
289.031036377,5457.25
289.330566406,5381.225
289.630065918,5401.925
289.92956543,5388.9
290.229034424,5477.825
290.528503418,5635.1
290.827941895,5761.475
291.127380371,5894.35
291.42678833,5996.325
291.726226807,6122.7
292.025604248,6144.15
292.324981689,6189.15
292.624359131,6241.775
292.923736572,6248.825
293.223052979,6289.45
293.522369385,6281.7
293.821685791,6266.925
294.12097168,6276.025
294.420257568,6260.6
294.719543457,6268.2
295.018768311,6264.05
295.318023682,6193.075
295.617248535,6172.725
295.916442871,6169.625
296.215667725,6090.175
296.514862061,5983.45
296.813995361,5831.5
297.11315918,5683.625
297.412322998,5590.625
297.711425781,5577.125
298.010559082,5715.975
298.309631348,5879.075
298.608734131,6047.1
298.907806396,6226.925
299.206848145,6337.025
299.505889893,6404.975
299.804901123,6520.8
300.103912354,6557.875
300.402954102,6636.65
300.701904297,6704.625
301.00088501,6750.35
301.299835205,6825.475
301.5987854,6834.325
301.897735596,6935.875
302.196624756,6955.075
302.495513916,7033.675
302.794403076,7072.0
303.093292236,7096.875
303.392120361,7181.825
303.690979004,7210.85
303.989837646,7249.575
304.288604736,7304.075
304.587402344,7303.45
304.886199951,7333.2
305.184967041,7384.375
305.483734131,7418.75
305.782501221,7479.85
306.081176758,7471.275
306.37991333,7528.975
306.678619385,7506.85
306.977294922,7522.775
307.275970459,7565.775
307.574645996,7571.125
307.873260498,7536.225
308.171875,7542.55
308.470489502,7556.525
308.769104004,7498.5
309.067687988,7506.3
309.366241455,7506.125
309.664794922,7440.4
309.963348389,7473.7
310.261871338,7461.4
310.560394287,7494.45
310.858856201,7504.1
311.157348633,7530.35
311.455810547,7523.075
311.754272461,7564.95
312.052703857,7611.6
312.351135254,7641.85
312.649536133,7615.6
312.947937012,7615.025
313.246307373,7656.25
313.544647217,7633.55
313.843017578,7608.6
314.141387939,7580.325
314.439697266,7612.4
314.738006592,7542.475
315.036315918,7496.4
315.334564209,7417.375
315.6328125,7408.2
315.931091309,7314.95
316.229309082,7198.4
316.527526855,7125.7
316.825744629,7097.325
317.123901367,6993.85
317.422088623,6952.95
317.720245361,6975.15
318.0184021,6973.275
318.316497803,7026.8
318.614654541,7084.8
318.912750244,7110.275
319.21081543,7113.7
319.50894165,7141.475
319.806945801,7159.75
320.104980469,7132.0
320.403045654,7148.875
320.701049805,7121.075
320.999023438,7094.3
321.297027588,7065.525
321.595001221,7028.225
321.892913818,7025.625
322.190887451,6961.625
322.488830566,6893.7
322.786712646,6854.725
323.084625244,6776.15
323.382507324,6816.625
323.680358887,6713.1
323.978210449,6645.55
324.276062012,6609.125
324.573852539,6566.275
324.871643066,6529.45
325.169464111,6457.45
325.467224121,6416.2
325.764984131,6372.05
326.062744141,6306.675
326.360473633,6243.675
326.658203125,6180.85
326.955871582,6138.4
327.253570557,6080.425
327.551239014,6041.45
327.848907471,5980.45
328.146514893,5894.05
328.444152832,5861.725
328.741790771,5800.65
329.039367676,5775.625
329.336914062,5723.15
329.634521484,5650.475
329.932067871,5640.675
330.229553223,5554.875
330.527160645,5552.3
330.824615479,5481.55
331.12210083,5411.175
331.419586182,5312.45
331.717041016,5293.825
332.014465332,5197.075
332.311920166,5186.7
332.609313965,5152.625
332.906707764,5131.025
333.204101562,5135.35
333.501495361,5145.925
333.798828125,5177.9
334.096160889,5215.85
334.39352417,5247.4
334.690795898,5300.975
334.988098145,5321.625
335.285400391,5372.6
335.582641602,5365.075
335.879882812,5414.725
336.177124023,5406.925
336.474334717,5478.5
336.77154541,5476.725
337.068725586,5507.125
337.365905762,5510.025
337.66305542,5526.85
337.960205078,5544.95
338.257324219,5552.025
338.554443359,5569.15
338.8515625,5583.7
339.148590088,5588.35
339.445648193,5600.7
339.742736816,5564.4
340.039764404,5531.6
340.336761475,5522.075
340.63381958,5503.7
340.930755615,5425.225
341.227722168,5396.575
341.524688721,5322.725
341.821624756,5285.4
342.118560791,5298.5
342.415496826,5364.15
342.712402344,5508.525
343.009246826,5601.975
343.306121826,5697.15
343.602966309,5744.95
343.899810791,5819.575
344.196624756,5920.575
344.493438721,5927.675
344.79019165,5972.3
345.086975098,6018.95
345.383758545,6044.6
345.680480957,6031.275
345.977203369,6051.9
346.273956299,6086.25
346.570617676,6068.25
346.86730957,6098.025
347.163970947,6075.5
347.460601807,6103.925
347.757232666,6109.45
348.053894043,6107.625
348.350463867,6030.975
348.647064209,6040.925
348.943634033,6014.975
349.24017334,6035.575
349.536712646,5987.625
349.833251953,5997.45
350.129760742,5964.075
350.426208496,5991.85
350.722747803,5931.575
351.019195557,5937.375
351.315612793,5898.575
351.612060547,5858.175
351.908508301,5818.525
352.204864502,5787.675
352.501281738,5736.95
352.797637939,5670.55
353.093963623,5619.525
353.390319824,5553.075
353.686645508,5494.55
353.982940674,5415.625
354.27923584,5389.825
354.575531006,5334.425
354.871765137,5326.85
355.167999268,5331.125
355.464233398,5314.05
355.760437012,5328.85
356.056640625,5315.8
356.352813721,5331.975
356.648956299,5325.1
356.945129395,5348.075
357.241271973,5336.625
357.537384033,5376.55
357.833496094,5299.425
358.129577637,5295.3
358.425628662,5271.5
358.721679688,5253.3
359.017730713,5235.775
359.313720703,5205.575
359.609710693,5171.1
359.905761719,5121.325
360.201721191,5117.05
360.497650146,5033.2
360.793609619,5026.8
361.089538574,4965.525
361.385437012,4904.925
361.681365967,4864.15
361.977233887,4819.325
362.273071289,4768.2
362.568908691,4678.375
362.864746094,4553.575
363.160552979,4467.0
363.456359863,4311.825
363.752166748,4186.0
364.047912598,4130.1
364.343658447,4100.2
364.639434814,4125.475
364.935119629,4136.2
365.230834961,4212.975
365.526550293,4239.425
365.822174072,4246.125
366.117858887,4265.6
366.413482666,4294.05
366.709075928,4299.175
367.004730225,4224.3
367.300292969,4234.525
367.595855713,4280.175
367.891448975,4167.225
368.186981201,4090.35
368.482513428,4045.05
368.778015137,4048.275
369.073547363,4002.275
369.36895752,4014.85
369.664428711,3929.1
369.95993042,3845.85
370.255310059,3802.925
370.550720215,3783.3
370.846160889,3760.475
371.14151001,3713.025
371.436859131,3701.25
371.73223877,3671.475
372.027557373,3648.65
372.322875977,3590.025
372.618164062,3585.125
372.913482666,3541.025
373.208709717,3535.15
373.503967285,3477.5
373.799194336,3441.875
374.094421387,3437.95
374.389648438,3421.675
374.684844971,3416.325
374.979980469,3444.525
375.275146484,3468.95
375.570281982,3471.525
375.865386963,3490.2
376.160522461,3450.175
376.455596924,3436.375
376.750640869,3525.225
377.045715332,3539.2
377.340759277,3553.925
377.635772705,3611.75
377.93081665,3636.55
378.225769043,3694.15
378.520751953,3755.775
378.815734863,3710.925
379.110656738,3852.4
379.405548096,3995.175
379.700500488,3867.825
379.995391846,3688.825
380.290252686,3734.7
380.585083008,3832.35
380.879974365,3877.025
381.17477417,3790.0
381.469543457,3722.625
381.764404297,3723.675
382.059143066,3769.3
382.353912354,3828.725
382.648651123,3920.925
382.943389893,3873.55
383.238067627,3733.825
383.532775879,3750.425
383.827484131,3690.9
384.12210083,3703.625
384.416778564,3647.3
384.711425781,3558.475
385.006011963,3591.625
385.300628662,3573.225
385.595184326,3647.05
385.88973999,3725.85
386.184295654,3810.35
386.478820801,3876.775
386.77331543,3973.825
387.067840576,4085.925
387.362335205,4144.9
387.656768799,4203.15
387.951202393,4246.975
388.245635986,4305.35
388.540039062,4363.05
388.834472656,4435.45
389.128875732,4344.45
389.423187256,4144.8
389.717559814,4074.5
390.011871338,4193.6
390.306182861,4206.35
390.600463867,4222.3
390.894775391,4289.625
391.189025879,4315.975
391.48324585,4311.65
391.777526855,4344.775
392.071685791,4537.125
392.365875244,4624.825
392.660064697,4667.525
392.95425415,4980.725
393.248382568,4953.625
393.542510986,4562.925
393.836608887,4391.275
394.130706787,4398.075
394.424804688,4341.05
394.71887207,4449.1
395.012878418,4437.15
395.306915283,4337.075
395.600921631,4284.55
395.894927979,4239.85
396.188903809,4305.7
396.482879639,4313.4
396.776794434,4506.55
397.070739746,4461.55
397.364654541,4475.975
397.658538818,4828.275
397.952423096,4853.9
398.246307373,4793.25
398.540100098,5264.55
398.833953857,5178.675
399.127746582,4724.8
399.421508789,4747.55
399.715301514,4693.8
400.009063721,4622.5
400.30279541,4470.8
400.596496582,4386.7
400.890258789,4553.775
401.183929443,4627.125
401.47756958,4530.125
401.771240234,4297.625
402.064880371,4329.6
402.35848999,4389.25
402.652130127,4282.675
402.945678711,4341.4
403.239257812,4295.55
403.532775879,4256.8
403.82635498,4298.675
404.119842529,4210.675
404.413360596,4222.85
404.706848145,4265.175
405.000274658,4188.725
405.293762207,4258.675
405.587188721,4307.3
405.880584717,4182.55
406.17401123,4002.875
406.467407227,3818.35
406.760742188,3842.35
407.054107666,3864.65
407.347442627,3810.125
407.640716553,3792.075
407.934051514,3848.075
408.227325439,3906.65
408.520568848,4090.575
408.813842773,4158.675
409.107086182,4000.9
409.400238037,3944.2
409.693450928,3906.75
409.986633301,4002.775
410.279754639,3927.625
410.572875977,3650.575
410.86605835,3599.85
411.159118652,3624.5
411.452209473,3630.25
411.745330811,3484.625
412.038360596,3434.875
412.331390381,3460.075
412.624420166,3521.35
412.917388916,3430.25
413.210388184,3258.15
413.503387451,3256.875
413.796295166,3153.025
414.089233398,2992.925
414.382141113,2920.625
414.675048828,2905.575
414.967926025,2935.8
415.260803223,2889.25
415.55368042,2915.25
415.846466064,2878.375
416.139282227,2945.125
416.432098389,3057.325
416.724853516,3040.125
417.017608643,3002.275
417.31036377,3006.275
417.603088379,3126.675
417.895782471,3103.625
418.188476562,3063.075
418.481140137,3137.525
418.773803711,3171.875
419.066436768,3143.625
419.359039307,3237.575
419.651641846,3229.025
419.944244385,3241.425
420.236816406,3189.325
420.529327393,3377.825
420.821899414,3438.3
421.114379883,3389.8
421.406860352,3605.325
421.699371338,3804.875
421.991821289,3755.825
422.284240723,3586.525
422.576721191,3444.625
422.869110107,3356.975
423.161468506,3309.15
423.453857422,3341.75
423.74621582,3221.85
424.038543701,3119.0
424.330871582,3105.4
424.623168945,3018.35
424.915435791,3158.25
425.207702637,3119.8
425.499969482,3073.8
425.792205811,3024.0
426.084411621,2786.35
426.376617432,2862.75
426.668762207,2947.2
426.9609375,2827.8
427.253082275,2947.225
427.545196533,3287.175
427.837310791,3043.55
428.129425049,2799.025
428.421447754,2978.725
428.713531494,2977.9
429.005554199,2978.15
429.297576904,2975.3
429.589599609,3368.425
429.881561279,3638.825
430.173522949,3439.625
430.465484619,3398.05
430.757415771,3471.05
431.049316406,3262.1
431.341186523,3063.8
431.633117676,2966.55
431.924957275,2715.65
432.21673584,2601.65
432.508636475,2739.5
432.800415039,2760.75
433.092163086,2652.95
433.383972168,2635.6
433.675689697,3259.625
433.967437744,3698.825
434.259155273,2857.5
434.550872803,2582.6
434.842498779,2639.85
435.134185791,2748.55
435.425842285,2758.175
435.717437744,2680.925
436.009063721,2515.625
436.30065918,2656.875
436.592224121,2947.825
436.883758545,2785.375
437.175323486,2542.025
437.466827393,2521.375
437.758331299,2526.95
438.049804688,2549.15
438.341247559,2608.8
438.63269043,2677.55
438.924163818,2669.1
439.215515137,2632.45
439.50692749,2541.0
439.798309326,2548.95
440.089660645,2560.075
440.380981445,2478.025
440.672332764,2471.95
440.963623047,2703.175
441.254882812,3120.425
441.546173096,3274.7
441.837402344,3056.375
442.128631592,2886.925
442.41986084,2865.825
442.711029053,2761.4
443.002197266,2821.5
443.293365479,2992.7
443.584503174,3120.3
443.875610352,3081.55
444.166717529,2846.275
444.457794189,2890.325
444.748840332,2881.775
445.039916992,2843.75
445.330932617,2927.9
445.621948242,2772.9
445.912963867,2611.25
446.203918457,2820.0
446.494812012,3017.125
446.785827637,2838.425
447.076721191,2682.6
447.367584229,2671.9
447.658447266,2643.2
447.949371338,2698.9
448.24017334,2581.6
448.530975342,2507.75
448.821838379,2661.325
449.112579346,2722.425
449.40335083,2669.525
449.694152832,2702.375
449.984863281,2721.6
450.27557373,2643.2
450.56628418,2689.575
450.856933594,2721.825
451.147583008,2575.625
451.438262939,2483.175
451.728881836,2662.425
452.019470215,2739.425
452.310089111,2559.4
452.600646973,2579.9
452.891174316,2634.825
453.181732178,2483.725
453.472229004,2357.6
453.762695312,2467.675
454.053222656,2482.275
454.343658447,2372.7
454.634063721,2314.0
454.924530029,2478.75
455.214935303,2591.925
455.505279541,2652.775
455.795715332,2541.675
456.086029053,2352.35
456.376312256,2339.325
456.666687012,2367.025
456.956939697,2460.65
457.247192383,2456.425
457.537445068,2519.725
457.827728271,2694.25
458.117919922,2633.2
458.408081055,2575.2
458.698303223,2723.725
458.988433838,2652.175
459.278564453,2510.65
459.568725586,2739.275
459.858825684,2854.7
460.148864746,2575.0
460.438995361,2539.3
460.729034424,2590.0
461.019042969,2601.325
461.309082031,2762.975
461.599060059,2670.525
461.889007568,2258.925
462.179016113,2107.375
462.468933105,2331.625
462.75881958,2430.05
463.048736572,2187.25
463.338592529,2414.9
463.628448486,2742.75
463.918365479,2476.25
464.2081604,2636.65
464.497924805,2586.425
464.787780762,2704.625
465.077514648,2971.925
465.367218018,2628.625
465.657012939,2805.5
465.946685791,3192.2
466.236358643,2829.625
466.526092529,2359.1
466.815734863,2350.775
467.105316162,2286.05
467.394927979,2322.575
467.684570312,2176.925
467.974121094,2270.975
468.263671875,2359.35
468.553222656,2169.7
468.842773438,2081.5
469.132232666,1983.975
469.42175293,2012.125
469.711212158,1987.075
470.000640869,1871.75
470.290100098,1919.25
470.579498291,1957.5
470.868835449,1954.875
471.158294678,1925.125
471.447601318,1902.225
471.736907959,1963.25
472.026275635,2022.775
472.315551758,2005.975
472.604797363,2002.6
472.894104004,2117.25
473.183319092,2224.225
473.47253418,2214.075
473.761779785,2194.875
474.05090332,2123.35
474.340087891,2082.725
474.629241943,2035.225
474.918365479,2186.575
475.207427979,2426.525
475.496551514,2444.425
475.785614014,2230.075
476.074645996,2040.325
476.363708496,2131.275
476.652679443,2241.825
476.941650391,2086.325
477.230682373,1954.475
477.519622803,1955.575
477.808502197,2089.525
478.097412109,2319.525
478.386352539,2282.1
478.675201416,2049.2
478.964050293,1942.55
479.25289917,2120.375
479.541717529,2165.65
479.830474854,2024.625
480.11932373,2328.925
480.408050537,2485.775
480.696777344,2147.55
480.985534668,2042.45
481.274200439,2113.075
481.562866211,2331.7
481.851593018,2345.6
482.140197754,2291.15
482.428833008,2161.35
482.717468262,1975.25
483.006011963,2006.55
483.294586182,2106.3
483.5831604,2143.65
483.871673584,2021.7
484.16015625,2150.05
484.448699951,2364.6
484.7371521,2401.975
485.02557373,2409.025
485.314025879,2163.725
485.602416992,3345.375
485.890777588,11941.7
486.179199219,10633.225
486.467559814,2847.35
486.755859375,2064.375
487.044219971,2410.575
487.332519531,2574.925
487.620758057,2209.55
487.908966064,1979.8
488.197265625,1791.1
488.485473633,1718.975
488.773651123,1822.85
489.061859131,1807.3
489.350006104,1766.3
489.638122559,1711.8
489.926300049,1728.8
490.214355469,1689.95
490.502441406,1645.7
490.790527344,1576.6
491.078552246,1751.475
491.366546631,1753.975
491.654602051,1556.825
491.942565918,1597.45
492.230499268,1640.225
492.518493652,1615.05
492.806396484,1649.975
493.094268799,1566.325
493.382202148,1599.0
493.670074463,1706.475
493.957885742,1571.525
494.245727539,1558.075
494.533508301,1700.675
494.821289062,1602.775
495.109100342,1473.05
495.396850586,1432.95
495.684539795,1388.675
495.972290039,1571.35
496.25994873,1882.1
496.547607422,1884.9
496.835296631,1716.05
497.122894287,1426.5
497.410522461,1373.225
497.6980896,1365.725
497.985687256,1351.475
498.273223877,1433.625
498.560760498,1498.4
498.848266602,1515.875
499.135772705,1497.975
499.423217773,1520.45
499.710693359,1613.3
499.998138428,1558.25
500.285522461,1418.3
500.572937012,1339.375
500.860290527,1385.05
501.147644043,1482.1
501.434997559,1685.825
501.722290039,1550.775
502.00958252,1355.7
502.296875,1585.25
502.584106445,1560.35
502.871337891,1419.125
503.158599854,1479.6
503.445770264,1557.45
503.732910156,1530.275
504.020141602,1374.375
504.307220459,1359.375
504.594329834,1372.85
504.881469727,1323.375
505.168518066,1385.85
505.455535889,1446.55
505.742614746,1342.9
506.029632568,1282.525
506.316589355,1447.225
506.603637695,1525.7
506.890563965,1351.025
507.177459717,1206.3
507.464385986,1130.4
507.751312256,1328.9
508.038146973,1398.175
508.325012207,1282.95
508.611877441,1328.175
508.898681641,1334.425
509.185424805,1190.275
509.472259521,1158.3
509.759002686,1235.05
510.045715332,1261.65
510.332458496,1220.325
510.619140625,1267.325
510.905761719,1186.125
511.192504883,1181.4
511.479095459,1222.225
511.765686035,1178.25
512.052307129,1103.775
512.338928223,1063.675
512.625427246,1097.825
512.91204834,1160.5
513.198486328,1150.25
513.484985352,1112.925
513.77142334,1046.55
514.057922363,1087.025
514.344299316,1088.775
514.63079834,1056.1
514.917175293,1046.525
515.203552246,965.6
515.489868164,946.825
515.776245117,1044.425
516.0625,1081.125
516.348815918,1004.275
516.635070801,1037.275
516.921325684,1075.875
517.207580566,1025.025
517.493774414,935.825
517.779968262,949.85
518.066101074,987.625
518.352294922,942.725
518.638366699,949.25
518.924499512,1010.025
519.210632324,1078.225
519.496643066,1049.775
519.782714844,967.0
520.068786621,938.25
520.354736328,899.725
520.640686035,870.35
520.926757812,905.05
521.212646484,975.9
521.498535156,982.725
521.784484863,928.025
522.0703125,876.75
522.356262207,885.675
522.642089844,959.75
522.927856445,952.3
523.213684082,947.65
523.499511719,933.3
523.78527832,972.4
524.070983887,1013.825
524.356750488,992.75
524.64239502,964.05
524.928039551,957.75
525.213806152,972.15
525.499389648,964.95
525.784973145,983.175
526.070617676,1014.525
526.356140137,995.625
526.641723633,998.7
526.927307129,1059.8
527.212768555,1064.35
527.498291016,1043.825
527.783752441,1045.325
528.069213867,1021.075
528.354675293,1041.25
528.640014648,1181.7
528.925476074,1241.075
529.21081543,1176.7
529.496154785,1149.425
529.781555176,1126.6
530.066833496,1145.8
530.352050781,1160.525
530.637390137,1141.25
530.922607422,1138.05
531.207824707,1144.225
531.493041992,1135.05
531.778198242,1189.3
532.063354492,1176.025
532.348571777,1124.425
532.633666992,1136.425
532.918762207,1211.775
533.203857422,1274.775
533.488891602,1301.925
533.773925781,1255.825
534.059020996,1235.775
534.343933105,1260.425
534.628967285,1240.825
534.91394043,1256.225
535.198852539,1270.95
535.483703613,1241.65
535.768676758,1191.275
536.053527832,1197.525
536.338317871,1167.15
536.62322998,1110.5
536.90802002,1085.85
537.192810059,1111.5
537.477539062,1174.7
537.762329102,1208.75
538.047058105,1245.4
538.331726074,1274.15
538.616455078,1263.475
538.901123047,1229.875
539.18572998,1279.8
539.470397949,1283.45
539.755004883,1278.85
540.039550781,1245.05
540.32409668,1202.25
540.608703613,1245.45
540.893188477,1329.15
541.17767334,1335.65
541.462158203,1350.375
541.746643066,1296.825
542.031066895,1328.15
542.315429688,1372.125
542.59979248,1377.65
542.884216309,1348.725
543.168579102,1343.725
543.452941895,1358.05
543.737243652,1400.6
544.021484375,1447.55
544.305725098,1438.95
544.590026855,1409.3
544.874267578,1418.775
545.158447266,1486.325
545.442626953,1410.8
545.726806641,1311.125
546.010925293,1351.475
546.29510498,1375.35
546.579162598,1373.4
546.863220215,1410.7
547.147277832,1466.4
547.431335449,1534.25
547.715332031,1587.575
547.999328613,1683.875
548.283325195,1690.1
548.567260742,1559.35
548.851135254,1539.975
549.135070801,1516.575
549.419006348,1432.2
549.702819824,1508.7
549.986755371,1585.275
550.270507812,1542.375
550.554321289,1595.25
550.83807373,1606.1
551.121826172,1547.125
551.405517578,1571.825
551.689331055,1668.45
551.973022461,1880.6
552.256652832,1918.7
552.540344238,1843.9
552.823974609,1821.875
553.107543945,1814.975
553.391174316,1861.85
553.674743652,1907.85
553.958251953,1911.175
554.241821289,1929.175
554.525268555,1865.55
554.808776855,1860.675
555.092285156,2033.45
555.375671387,2106.625
555.659057617,2099.25
555.942504883,2122.825
556.225891113,2160.3
556.509216309,2114.825
556.792541504,2030.4
557.075866699,2114.075
557.359130859,2135.85
557.64239502,2152.375
557.92565918,2211.95
558.208862305,2197.975
558.49206543,2133.225
558.77532959,2151.8
559.058410645,2190.275
559.341552734,2184.525
559.624694824,2222.95
559.907775879,2277.825
560.190856934,2397.0
560.473937988,2393.725
560.756896973,2412.3
561.039978027,2447.65
561.322937012,2404.025
561.605895996,2398.275
561.88885498,2373.725
562.171813965,2366.775
562.454650879,2362.225
562.737548828,2398.975
563.020446777,2459.075
563.303283691,2457.025
563.58605957,2503.975
563.868896484,2530.175
564.151672363,2561.475
564.434387207,2581.275
564.717163086,2557.0
564.99987793,2598.4
565.282531738,2652.85
565.565185547,2595.4
565.847839355,2588.85
566.130432129,2708.8
566.413085938,2693.075
566.695678711,2688.375
566.978149414,2779.525
567.260681152,2909.2
567.543273926,2983.15
567.825744629,2898.525
568.108154297,2927.575
568.390686035,3039.3
568.673095703,3143.0
568.955505371,3164.95
569.237854004,3214.95
569.520202637,3429.2
569.802490234,3629.45
570.084838867,3601.55
570.367126465,3459.2
570.649414062,3462.1
570.93170166,3780.525
571.213928223,3850.275
571.496154785,3620.925
571.778381348,3824.15
572.06048584,4049.35
572.342590332,3653.25
572.624755859,3349.825
572.906860352,3403.575
573.188903809,3987.725
573.470947266,4215.975
573.752990723,3991.725
574.03503418,4091.9
574.317016602,4421.725
574.598937988,4222.65
574.88092041,4126.125
575.162841797,4268.025
575.444763184,3963.35
575.726623535,3732.95
576.008483887,3756.05
576.290344238,4109.7
576.572143555,4296.95
576.853881836,4353.5
577.135681152,4246.575
577.417419434,4306.125
577.699157715,5055.925
577.980895996,5192.875
578.262573242,4629.925
578.544128418,4211.825
578.825866699,4163.625
579.107421875,3889.325
579.388977051,4052.275
579.670593262,4387.2
579.952148438,4233.0
580.233642578,4342.025
580.515197754,4421.45
580.796691895,4165.825
581.078125,4316.425
581.359619141,5647.65
581.640991211,5706.85
581.922363281,4920.175
582.203796387,4962.675
582.485107422,4634.15
582.766418457,4288.4
583.047790527,4164.65
583.329040527,4076.325
583.610290527,3957.325
583.891540527,4061.225
584.172790527,4341.9
584.453918457,4354.65
584.735107422,4403.1
585.016235352,4784.4
585.297363281,4751.9
585.578552246,4572.85
585.859619141,4528.875
586.140625,4359.225
586.421630859,4215.6
586.702697754,4246.15
586.983642578,4440.725
587.264648438,4582.5
587.545654297,4533.0
587.826477051,4487.475
588.107421875,4316.35
588.388305664,4360.975
588.669189453,4441.25
588.950012207,4307.975
589.230834961,4212.175
589.511657715,4309.625
589.792358398,4400.975
590.073120117,4384.575
590.353881836,4357.225
590.63458252,4372.825
590.915283203,4352.625
591.195922852,4330.2
591.4765625,4389.15
591.757202148,4398.55
592.037780762,4414.325
592.31829834,4405.625
592.598937988,4606.05
592.879394531,4736.675
593.159912109,4651.75
593.440429688,4605.9
593.720825195,4578.65
594.001281738,4569.25
594.281677246,4474.1
594.562072754,4514.725
594.842407227,4599.325
595.122802734,4625.125
595.403137207,4612.3
595.683410645,4579.575
595.963623047,4585.3
596.243896484,4531.55
596.524169922,4532.75
596.804382324,4553.8
597.084533691,4580.25
597.364746094,4612.375
597.644836426,4621.275
597.924987793,4618.875
598.205078125,4569.175
598.485107422,4615.025
598.765197754,4728.1
599.045227051,4790.9
599.325195312,4685.725
599.605224609,4647.1
599.885192871,4696.025
600.165100098,4718.55
600.445007324,4687.35
600.724914551,4673.975
601.004760742,4696.675
601.284667969,4748.375
601.56451416,4684.775
601.844238281,4707.45
602.124084473,4698.475
602.403808594,4692.3
602.683532715,4730.375
602.963256836,4730.1
603.242919922,4767.35
603.522583008,4783.425
603.802246094,4765.075
604.081848145,4727.325
604.36138916,4743.3
604.641052246,4750.8
604.920532227,4722.075
605.200073242,4769.525
605.479614258,4797.8
605.759094238,4833.0
606.038574219,4815.325
606.317932129,4734.425
606.597412109,4759.45
606.87677002,4778.05
607.15612793,4821.625
607.435546875,4807.825
607.714782715,4831.4
607.99407959,4798.225
608.273376465,4766.45
608.552612305,4798.775
608.831848145,4831.675
609.111083984,4809.075
609.390258789,4807.4
609.669433594,4791.9
609.948608398,4844.975
610.227722168,4819.875
610.506713867,4775.075
610.785888672,4798.225
611.064880371,4784.65
611.34387207,4791.025
611.622924805,4815.1
611.901916504,4800.375
612.180847168,4772.5
612.459777832,4772.925
612.738647461,4766.15
613.01751709,4761.325
613.296447754,4720.8
613.575317383,4694.325
613.854064941,4637.45
614.132873535,4580.1
614.411621094,4516.275
614.690368652,4495.475
614.969177246,4431.8
615.247802734,4370.975
615.526489258,4341.425
615.805175781,4262.175
616.08380127,4151.7
616.362365723,4080.775
616.640991211,4036.875
616.919555664,4013.05
617.198059082,4121.675
617.4765625,4344.95
617.755126953,4462.275
618.033569336,4479.075
618.311950684,4495.675
618.590454102,4499.625
618.868774414,4465.725
619.147155762,4467.425
619.425598145,4459.075
619.703857422,4473.325
619.982177734,4497.175
620.260498047,4487.25
620.538757324,4467.75
620.816955566,4451.925
621.095214844,4407.75
621.373413086,4424.45
621.651550293,4473.35
621.929748535,4498.725
622.207824707,4485.225
622.485900879,4504.05
622.764038086,4486.7
623.042053223,4521.15
623.320007324,4550.3
623.598083496,4560.075
623.876037598,4521.425
624.153991699,4546.1
624.432006836,4562.725
624.709838867,4567.85
624.987731934,4548.9
625.265563965,4557.15
625.543395996,4577.95
625.821228027,4614.2
626.098999023,4612.35
626.376831055,4644.975
626.654541016,4669.475
626.932250977,4683.45
627.209960938,4728.65
627.487670898,4728.75
627.765319824,4761.275
628.04296875,4769.275
628.320495605,4764.775
628.598083496,4779.15
628.875671387,4794.875
629.153259277,4827.025
629.430725098,4860.5
629.708251953,4842.675
629.985656738,4885.525
630.263122559,4911.05
630.540588379,4915.65
630.817932129,4942.775
631.095275879,4957.55
631.372680664,5005.225
631.649963379,5036.4
631.927246094,5068.55
632.204589844,5092.6
632.481811523,5151.525
632.759033203,5206.325
633.036254883,5221.25
633.313415527,5314.225
633.590576172,5341.125
633.867736816,5429.425
634.144836426,5489.825
634.421875,5506.225
634.698913574,5574.075
634.976013184,5617.45
635.252990723,5676.9
635.529968262,5671.25
635.807006836,5753.7
636.08392334,5731.95
636.360839844,5651.8
636.637756348,5583.225
636.914611816,5532.1
637.191467285,5512.0
637.468261719,5595.125
637.745056152,5552.125
638.021789551,5556.2
638.298583984,5591.875
638.575317383,5610.075
638.851989746,5620.575
639.12878418,5640.1
639.405395508,5612.35
639.682006836,5634.65
639.958618164,5645.075
640.235229492,5618.55
640.511779785,5647.1
640.788330078,5617.7
641.064880371,5616.525
641.341308594,5582.825
641.617797852,5589.675
641.894226074,5594.6
642.170654297,5614.5
642.44708252,5621.25
642.723388672,5600.975
642.999755859,5595.6
643.276123047,5601.15
643.552429199,5579.7
643.828674316,5561.525
644.104919434,5568.65
644.381164551,5546.35
644.657348633,5566.25
644.933532715,5527.925
645.209716797,5541.075
645.485839844,5538.425
645.761901855,5517.475
646.038024902,5495.075
646.314086914,5529.45
646.590087891,5490.8
646.866149902,5507.875
647.142150879,5494.175
647.41809082,5453.075
647.694030762,5450.875
647.969970703,5446.275
648.245788574,5459.375
648.521728516,5449.975
648.797546387,5424.375
649.073303223,5455.35
649.349182129,5408.75
649.624938965,5419.975
649.900634766,5426.475
650.176391602,5397.05
650.452087402,5364.4
650.727783203,5387.675
651.003479004,5380.625
651.279052734,5368.425
651.554626465,5348.025
651.83026123,5339.65
652.105773926,5363.35
652.381286621,5312.175
652.656860352,5314.975
652.932312012,5314.5
653.207763672,5317.175
653.483215332,5352.325
653.758605957,5331.85
654.033935547,5315.3
654.309326172,5321.8
654.584716797,5324.2
654.859985352,5301.9
655.135253906,5336.225
655.410583496,5332.725
655.685791016,6145.15
655.9609375,9609.825
656.236206055,9376.2
656.511291504,6168.225
656.786437988,5425.3
657.061645508,5328.275
657.336669922,5305.975
657.611694336,5326.3
657.886779785,5347.875
658.161804199,5362.475
658.436828613,5305.1
658.711791992,5311.475
658.986755371,5329.4
659.261657715,5331.85
659.536621094,5318.3
659.811401367,5340.4
660.086303711,5345.175
660.36114502,5322.575
660.635864258,5301.9
660.910644531,5316.95
661.185424805,5311.725
661.460205078,5335.975
661.734863281,5341.1
662.009521484,5317.8
662.284179688,5332.375
662.558776855,5351.575
662.833435059,5357.475
663.108032227,5381.075
663.382568359,5340.0
663.657043457,5368.4
663.93157959,5376.35
664.206054688,5361.9
664.48046875,5386.45
664.755004883,5382.55
665.02935791,5386.025
665.303710938,5390.6
665.578125,5444.275
665.852416992,5405.2
666.126708984,5382.725
666.401062012,5403.825
666.675292969,5429.7
666.949462891,5397.725
667.223754883,5400.1
667.497924805,5427.275
667.772094727,5421.1
668.046264648,5367.125
668.3203125,5438.8
668.594421387,5432.775
668.868469238,5433.425
669.14251709,5424.55
669.416503906,5423.425
669.690551758,5431.725
669.964477539,5403.175
670.23840332,5433.7
670.512329102,5438.35
670.786254883,5404.95
671.060058594,5445.575
671.333984375,5431.65
671.607788086,5433.725
671.881530762,5436.975
672.155334473,5474.425
672.429077148,5451.1
672.702758789,5464.05
672.97644043,5433.45
673.25012207,5439.375
673.523742676,5412.875
673.797302246,5404.825
674.070922852,5462.325
674.344482422,5443.875
674.618041992,5440.875
674.891601562,5440.5
675.165100098,5437.9
675.438476562,5436.0
675.711975098,5441.2
675.985412598,5416.575
676.258789062,5401.375
676.532165527,5410.975
676.805480957,5415.025
677.078796387,5416.775
677.352111816,5425.1
677.625366211,5384.475
677.898620605,5381.6
678.171875,5429.775
678.445007324,5383.775
678.718200684,5414.375
678.991394043,5408.025
679.264404297,5407.125
679.537536621,5413.125
679.81060791,5393.325
680.083679199,5409.35
680.356689453,5369.95
680.629699707,5386.4
680.902648926,5372.575
681.175598145,5402.475
681.448547363,5404.775
681.721435547,5386.75
681.99420166,5364.375
682.267150879,5348.175
682.539916992,5390.575
682.812744141,5347.8
683.085510254,5315.15
683.358215332,5357.675
683.63092041,5298.6
683.903625488,5331.025
684.176330566,5283.975
684.448913574,5286.4
684.721557617,5259.225
684.99420166,5308.75
685.266662598,5288.05
685.539245605,5290.2
685.811767578,5306.55
686.084289551,5291.225
686.356689453,5313.775
686.629150391,5322.575
686.901550293,5321.825
687.17401123,5304.375
687.446350098,5318.925
687.718688965,5299.375
687.990966797,5316.85
688.263305664,5348.3
688.535522461,5286.575
688.807739258,5290.625
689.079956055,5312.975
689.352172852,5312.85
689.624328613,5312.4
689.896484375,5302.525
690.168518066,5298.2
690.440612793,5315.6
690.71270752,5317.15
690.984741211,5317.825
691.256713867,5308.65
691.528747559,5290.525
691.800720215,5303.35
692.072631836,5301.925
692.344543457,5314.475
692.616394043,5299.375
692.888244629,5277.65
693.160095215,5318.9
693.431945801,5319.15
693.703674316,5301.75
693.975463867,5287.475
694.247131348,5300.725
694.518859863,5289.0
694.790588379,5297.575
695.062255859,5301.475
695.33380127,5277.725
695.60546875,5284.525
695.87701416,5283.8
696.148498535,5290.5
696.42010498,5317.2
696.691589355,5304.175
696.96307373,5301.975
697.234558105,5311.35
697.50592041,5307.775
697.777282715,5280.925
698.048706055,5268.525
698.320068359,5292.95
698.591308594,5277.375
698.862670898,5275.725
699.133972168,5305.175
699.405151367,5268.925
699.676391602,5285.6
699.947570801,5264.325
700.21875,5267.425
700.489868164,5250.25
700.761047363,5222.45
701.032104492,5260.5
701.303100586,5221.425
701.57421875,5239.6
701.845214844,5237.475
702.116149902,5246.125
702.387207031,5207.625
702.65814209,5239.825
702.928955078,5239.475
703.199951172,5206.45
703.47076416,5194.05
703.741577148,5191.35
704.012451172,5193.375
704.28314209,5194.975
704.553955078,5184.55
704.824707031,5202.8
705.095397949,5216.175
705.366027832,5198.15
705.63671875,5194.275
705.907348633,5176.4
706.17791748,5174.25
706.448486328,5177.2
706.719055176,5181.675
706.989562988,5204.025
707.260131836,5177.975
707.530517578,5192.9
707.800964355,5212.825
708.071411133,5148.65
708.341796875,5153.975
708.612182617,5141.8
708.882446289,5119.4
709.152893066,5134.075
709.423156738,5158.075
709.693359375,5111.225
709.963623047,5116.675
710.233825684,5134.825
710.503967285,5102.7
710.774169922,5106.425
711.044311523,5070.6
711.31439209,5074.5
711.584533691,5080.925
711.854553223,5056.725
712.124572754,5078.4
712.39465332,5043.325
712.664611816,5055.575
712.934509277,5065.975
713.204467773,5030.875
713.474365234,5064.725
713.74420166,5073.35
714.014099121,5065.425
714.283874512,5047.675
714.553710938,5048.775
714.823486328,5036.7
715.093200684,5019.05
715.362915039,5021.925
715.632629395,4983.925
715.902282715,4983.8
716.171875,4989.55
716.441589355,4985.325
716.711181641,4979.45
716.980712891,4975.925
717.250244141,4959.75
717.519775391,4943.1
717.78918457,4956.625
718.058654785,4970.9
718.328125,4990.2
718.597473145,4969.15
718.866882324,4965.975
719.136230469,4937.1
719.405578613,4959.05
719.674865723,4958.025
719.944152832,4930.2
720.213439941,4905.3
720.48260498,4934.975
720.75177002,4938.125
721.020996094,4932.425
721.290100098,4931.05
721.559204102,4909.825
721.828308105,4918.7
722.097351074,4904.475
722.366455078,4888.9
722.635437012,4873.5
722.904418945,4839.375
723.173400879,4880.975
723.442321777,4879.3
723.711181641,4873.95
723.980102539,4866.0
724.248962402,4872.25
724.51776123,4853.375
724.786560059,4849.125
725.055358887,4847.1
725.324035645,4830.95
725.592834473,4823.4
725.86151123,4819.6
726.130187988,4802.65
726.398803711,4816.1
726.667419434,4816.125
726.935974121,4798.375
727.204528809,4770.725
727.473083496,4776.65
727.741638184,4756.225
728.010070801,4741.475
728.278564453,4745.475
728.546936035,4738.5
728.815368652,4702.5
729.08380127,4661.825
729.352111816,4640.35
729.620361328,4585.875
729.88873291,4631.225
730.156982422,4629.65
730.425231934,4625.275
730.693481445,4625.425
730.961669922,4661.0
731.229797363,4686.475
731.49798584,4701.375
731.766113281,4712.1
732.034118652,4731.05
732.302246094,4758.9
732.570251465,4755.725
732.838256836,4767.725
733.106262207,4830.125
733.374145508,4846.875
733.642089844,4860.75
733.909973145,4886.55
734.177856445,4918.675
734.445678711,4964.375
734.713562012,5018.725
734.981323242,5025.65
735.249084473,5052.4
735.516845703,5132.425
735.784545898,5146.4
736.052185059,5170.65
736.319885254,5215.7
736.587524414,5252.65
736.855102539,5262.0
737.122619629,5352.0
737.390197754,5354.05
737.657714844,5417.6
737.925170898,5432.025
738.192749023,5491.025
738.460144043,5522.875
738.727539062,5546.225
738.994995117,5599.975
739.262329102,5661.15
739.529663086,5694.075
739.79699707,5715.675
740.06427002,5749.7
740.331481934,5795.175
740.598754883,5850.325
740.865905762,5831.275
741.133056641,5925.075
741.40032959,5927.6
741.667358398,5977.65
741.934448242,5967.65
742.201599121,6001.675
742.468566895,6043.1
742.735534668,6074.1
743.002563477,6119.2
743.26953125,6086.4
743.536437988,6109.05
743.803405762,6184.175
744.0703125,6170.825
744.337097168,6237.275
744.604003906,6181.6
744.870727539,6218.3
745.137512207,6237.975
745.40423584,6246.45
745.670959473,6227.25
745.93762207,6253.45
746.204284668,6283.55
746.470947266,6283.35
746.737548828,6270.525
747.004089355,6310.7
747.270751953,6311.075
747.53717041,6332.875
747.803710938,6290.975
748.070251465,6309.575
748.336608887,6297.55
748.603027344,6286.1
748.869445801,6297.275
749.135803223,6295.05
749.402099609,6292.6
749.668457031,6281.325
749.934753418,6269.525
750.20098877,6223.025
750.467224121,6280.075
750.733459473,6246.175
750.999572754,6232.3
751.26574707,6212.6
751.531860352,6247.7
751.797912598,6205.375
752.064025879,6181.0
752.330078125,6177.5
752.596069336,6176.725
752.862060547,6160.6
753.127990723,6175.825
753.393920898,6152.55
753.659912109,6155.125
753.925720215,6159.7
754.19152832,6151.875
754.457397461,6140.975
754.723144531,6107.05
754.988952637,6087.75
755.254699707,6109.55
755.520385742,6125.9
755.786071777,6092.675
756.051696777,6091.425
756.317382812,6076.1
756.582946777,6037.6
756.848510742,6087.575
757.114074707,6046.725
757.379577637,6024.175
757.645080566,6089.175
757.910583496,6088.8
758.175964355,6022.7
758.441345215,6008.9
758.706848145,5960.15
758.972106934,5975.875
759.237426758,5977.775
759.502807617,6011.225
759.768005371,6007.425
760.03326416,5986.425
760.298522949,5942.05
760.563659668,5982.7
760.828857422,5950.125
761.093994141,5975.825
761.359130859,5949.25
761.624206543,5909.325
761.889282227,5910.225
762.15423584,5923.3
762.419250488,5878.475
762.684265137,5878.8
762.949157715,5864.325
763.214050293,5873.475
763.479003906,5882.0
763.743835449,5877.175
764.008666992,5857.825
764.2734375,5861.925
764.538208008,5864.4
764.802978516,5898.475
765.067687988,5883.425
765.332397461,5871.825
765.597045898,5851.05
765.861694336,5835.5
766.126342773,5826.325
766.390930176,5835.075
766.655395508,5806.05
766.920043945,5798.225
767.184509277,5786.45
767.448974609,5806.5
767.713439941,5802.55
767.977783203,5793.1
768.2421875,5805.65
768.506591797,5788.125
768.770874023,5846.075
769.03515625,5850.75
769.299499512,5817.3
769.563720703,5822.2
769.827941895,5807.75
770.092163086,5811.175
770.356323242,5790.625
770.620483398,5826.85
770.88458252,5824.75
771.148681641,5836.325
771.412719727,5823.475
771.676757812,5837.525
771.940734863,5799.5
772.204711914,5819.125
772.468688965,5813.85
772.73260498,5808.65
772.996459961,5813.625
773.260314941,5189.3
773.524169922,703.125
773.787963867,139.35
774.051696777,119.1
774.315551758,119.475
774.579223633,121.225
774.842895508,120.35
775.106567383,121.625
775.370239258,118.125
775.633789062,123.9
775.897399902,125.775
776.160949707,116.825
776.424499512,121.95
776.687988281,124.225
776.951477051,124.85
777.214904785,119.875
777.47833252,119.725
