191.299911499,101.575
191.603515625,104.5
191.907119751,99.65
192.210693359,104.5
192.514251709,100.1
192.817810059,102.35
193.121368408,102.65
193.42489624,107.475
193.728408813,98.475
194.031936646,100.6
194.33543396,95.375
194.638916016,113.25
194.94241333,99.7
195.245880127,99.25
195.549331665,95.375
195.852767944,101.525
196.156204224,208.95
196.459625244,204.425
196.763015747,204.15
197.066436768,212.575
197.369812012,203.175
197.673187256,206.15
197.9765625,202.3
198.279922485,205.925
198.583251953,199.7
198.886581421,207.475
199.18989563,210.15
199.493209839,206.85
199.79649353,204.4
200.09979248,213.625
200.403076172,208.525
200.706314087,208.25
201.009567261,207.55
201.312820435,204.675
201.616027832,197.4
201.919235229,197.425
202.222457886,197.975
202.525634766,202.625
202.828826904,196.0
203.132003784,192.45
203.435150146,195.525
203.738296509,199.725
204.041412354,195.75
204.344558716,201.25
204.647659302,199.825
204.950759888,204.95
205.253845215,202.15
205.556930542,196.525
205.859985352,199.075
206.163024902,201.55
206.466079712,204.625
206.769104004,214.025
207.072113037,205.425
207.375137329,201.5
207.678131104,205.775
207.981109619,209.25
208.284088135,200.4
208.587036133,208.175
208.889984131,207.65
209.19291687,207.325
209.495849609,209.575
209.798751831,212.875
210.101654053,209.4
210.404556274,213.825
210.707427979,210.8
211.010269165,216.425
211.31312561,219.05
211.615982056,217.75
211.918807983,221.15
212.221618652,214.4
212.524429321,216.975
212.827224731,225.3
213.130004883,222.6
213.432769775,226.8
213.735534668,224.475
214.038269043,233.675
214.341003418,229.4
214.643737793,230.825
214.946456909,238.1
215.249145508,240.9
215.551834106,241.0
215.854507446,242.525
216.157165527,238.5
216.45980835,243.075
216.762451172,253.175
217.065078735,251.0
217.36769104,251.125
217.670303345,258.325
217.972885132,256.325
218.275466919,265.4
218.578048706,257.275
218.880599976,280.1
219.183120728,281.275
219.485656738,292.45
219.788192749,308.05
220.090682983,342.675
220.393188477,375.925
220.695663452,430.225
220.998138428,477.0
221.300582886,546.2
221.603042603,609.425
221.905487061,689.05
222.207901001,785.025
222.510299683,867.275
222.812728882,997.4
223.115097046,1101.925
223.41746521,1242.8
223.719848633,1362.4
224.022171021,1504.7
224.324508667,1637.75
224.626846313,1810.725
224.929168701,1942.075
225.231460571,2111.5
225.533737183,2272.375
225.836013794,2449.275
226.138290405,2588.375
226.440536499,2721.65
226.742767334,2878.25
227.044998169,3006.375
227.347213745,3192.875
227.649429321,3325.875
227.951629639,3441.825
228.253799438,3574.1
228.555953979,3687.3
228.858123779,3833.675
229.160263062,3910.65
229.462371826,4025.2
229.764511108,4124.75
230.066619873,4214.625
230.36869812,4315.15
230.670776367,4445.975
230.972854614,4545.55
231.274902344,4660.025
231.576950073,4795.875
231.878967285,4878.1
232.180999756,5032.5
232.48298645,5135.6
232.784988403,5251.075
233.086975098,5362.025
233.388946533,5474.325
233.69090271,5590.75
233.992858887,5715.375
234.294769287,5775.775
234.596694946,5888.0
234.898605347,5990.225
235.200500488,6033.275
235.502380371,6144.8
235.804244995,6167.3
236.106109619,6210.1
236.407958984,6289.375
236.709777832,6334.925
237.011581421,6393.7
237.313400269,6432.775
237.615203857,6461.525
237.916976929,6539.075
238.21875,6523.8
238.520507812,6572.65
238.822250366,6633.775
239.12399292,6625.375
239.425704956,6685.425
239.727401733,6644.875
240.02911377,6683.275
240.330780029,6676.725
240.632446289,6704.05
240.93409729,6699.1
241.23576355,6733.55
241.537384033,6773.0
241.839004517,6769.1
242.140594482,6785.4
242.442199707,6839.725
242.743774414,6854.225
243.045333862,6860.375
243.346923828,6872.325
243.648452759,6877.3
243.949966431,6844.8
244.251495361,6872.7
244.552993774,6852.175
244.854492188,6798.175
245.155975342,6761.675
245.457443237,6760.15
245.758880615,6697.725
246.060333252,6651.875
246.36177063,6620.05
246.66317749,6562.7
246.964569092,6509.8
247.265945435,6456.575
247.567337036,6421.875
247.86869812,6401.925
248.170059204,6362.95
248.471389771,6361.25
248.772705078,6353.8
249.074035645,6348.475
249.375335693,6301.575
249.676620483,6319.175
249.977890015,6313.45
250.279159546,6361.575
250.58039856,6381.775
250.881637573,6399.525
251.182876587,6389.325
251.484069824,6463.375
251.785263062,6494.925
252.086456299,6555.675
252.387619019,6553.8
252.688781738,6584.4
252.989929199,6634.5
253.291061401,6702.125
253.592178345,6745.075
253.893280029,6781.875
254.194366455,6817.375
254.49546814,6841.625
254.796524048,6825.075
255.097579956,6893.425
255.398620605,6862.575
255.699645996,6914.625
256.000640869,6904.375
256.30166626,6909.325
256.602661133,6933.325
256.903656006,6882.0
257.204589844,6913.15
257.505523682,6877.575
257.80645752,6877.65
258.107391357,6846.85
258.408294678,6805.75
258.709228516,6769.9
259.010070801,6733.925
259.310943604,6703.975
259.611846924,6650.375
259.912658691,6572.975
260.213500977,6521.125
260.514343262,6494.925
260.815124512,6418.2
261.115936279,6374.1
261.416717529,6360.25
261.717468262,6339.8
262.018218994,6275.9
262.318969727,6263.25
262.619689941,6310.8
262.920410156,6342.3
263.221130371,6376.0
263.521789551,6417.725
263.822479248,6440.575
264.123138428,6501.5
264.42376709,6543.2
264.72442627,6537.5
265.025054932,6544.775
265.325622559,6583.45
265.626251221,6551.075
265.926818848,6541.175
266.227386475,6494.325
266.527954102,6461.45
266.828460693,6476.6
267.12902832,6371.3
267.429534912,6334.425
267.730010986,6289.575
268.030517578,6248.575
268.330993652,6229.4
268.631439209,6177.2
268.931915283,6180.15
269.232299805,6141.2
269.532745361,6107.5
269.8331604,6073.5
270.133544922,6056.625
270.433929443,6060.675
270.734313965,6040.4
271.034637451,6081.425
271.334991455,6049.975
271.635314941,6098.175
271.935638428,6084.6
272.235931396,6158.275
272.536254883,6232.65
272.836486816,6265.025
273.136749268,6345.875
273.437011719,6454.325
273.737213135,6557.325
274.037445068,6661.425
274.337677002,6771.575
274.6378479,6868.225
274.938049316,6999.525
275.238220215,7090.375
275.538360596,7234.525
275.838500977,7332.7
276.138641357,7496.45
276.438751221,7554.0
276.738830566,7662.225
277.03894043,7716.075
277.338989258,7861.6
277.639038086,7973.9
277.939056396,8039.45
278.239105225,8111.275
278.539093018,8178.675
278.839141846,8243.55
279.139129639,8319.525
279.439086914,8407.175
279.739044189,8479.65
280.039001465,8571.925
280.338928223,8603.8
280.63885498,8662.25
280.938781738,8734.9
281.238647461,8758.7
281.538513184,8785.4
281.838409424,8803.5
282.138244629,8832.65
282.438079834,8868.725
282.737945557,8904.925
283.037719727,8900.025
283.337524414,8944.325
283.637298584,8943.625
283.937072754,8944.7
284.236816406,8999.725
284.536560059,8959.875
284.836303711,8969.425
285.136016846,9040.925
285.43572998,9038.95
285.735412598,9008.7
286.035064697,8993.95
286.334747314,9046.35
286.634368896,9057.15
286.933990479,8982.725
287.233642578,8914.65
287.533203125,8890.675
287.832824707,8826.0
288.132385254,8700.85
288.431945801,8571.7
288.731506348,8434.5
289.031036377,8237.625
289.330566406,8113.675
289.630065918,8090.925
289.92956543,8059.55
290.229034424,8155.45
290.528503418,8350.925
290.827941895,8487.35
291.127380371,8650.7
291.42678833,8781.725
291.726226807,8916.75
292.025604248,8974.925
292.324981689,8986.125
292.624359131,8998.725
292.923736572,8991.5
293.223052979,9037.25
293.522369385,9013.625
293.821685791,8953.35
294.12097168,8932.625
294.420257568,8893.375
294.719543457,8866.6
295.018768311,8835.075
295.318023682,8792.95
295.617248535,8705.475
295.916442871,8615.975
296.215667725,8570.275
296.514862061,8403.075
296.813995361,8197.175
297.11315918,7925.55
297.412322998,7804.35
297.711425781,7755.35
298.010559082,7927.1
298.309631348,8137.85
298.608734131,8365.125
298.907806396,8568.25
299.206848145,8727.975
299.505889893,8789.175
299.804901123,8898.525
300.103912354,9001.25
300.402954102,9095.15
300.701904297,9128.975
301.00088501,9205.75
301.299835205,9288.05
301.5987854,9316.35
301.897735596,9376.675
302.196624756,9439.875
302.495513916,9516.2
302.794403076,9535.975
303.093292236,9573.85
303.392120361,9676.65
303.690979004,9757.975
303.989837646,9782.475
304.288604736,9846.725
304.587402344,9821.9
304.886199951,9893.65
305.184967041,9938.225
305.483734131,10005.65
305.782501221,10004.075
306.081176758,10035.45
306.37991333,10024.975
306.678619385,10058.825
306.977294922,10046.175
307.275970459,10104.1
307.574645996,10109.7
307.873260498,10113.1
308.171875,10082.375
308.470489502,10053.175
308.769104004,9986.375
309.067687988,9988.25
309.366241455,9999.9
309.664794922,9947.775
309.963348389,9954.85
310.261871338,9931.2
310.560394287,9928.175
310.858856201,9971.375
311.157348633,10029.025
311.455810547,10002.625
311.754272461,10016.55
312.052703857,10129.45
312.351135254,10132.575
312.649536133,10103.175
312.947937012,10091.725
313.246307373,10106.85
313.544647217,10110.425
313.843017578,10056.525
314.141387939,10056.225
314.439697266,10077.075
314.738006592,9979.925
315.036315918,9901.175
315.334564209,9826.325
315.6328125,9725.325
315.931091309,9681.925
316.229309082,9533.95
316.527526855,9377.25
316.825744629,9351.25
317.123901367,9253.0
317.422088623,9204.625
317.720245361,9179.475
318.0184021,9202.4
318.316497803,9239.975
318.614654541,9258.875
318.912750244,9377.95
319.21081543,9360.825
319.50894165,9418.675
319.806945801,9408.325
320.104980469,9385.75
320.403045654,9386.4
320.701049805,9353.075
320.999023438,9335.5
321.297027588,9281.95
321.595001221,9249.75
321.892913818,9222.65
322.190887451,9139.5
322.488830566,9081.9
322.786712646,9028.925
323.084625244,8926.075
323.382507324,8904.425
323.680358887,8772.55
323.978210449,8712.925
324.276062012,8688.775
324.573852539,8593.3
324.871643066,8535.85
325.169464111,8483.9
325.467224121,8394.65
325.764984131,8330.45
326.062744141,8240.8
326.360473633,8157.775
326.658203125,8091.975
326.955871582,8007.275
327.253570557,7932.55
327.551239014,7875.05
327.848907471,7793.5
328.146514893,7693.225
328.444152832,7647.85
328.741790771,7579.1
329.039367676,7510.55
329.336914062,7473.925
329.634521484,7378.375
329.932067871,7342.275
330.229553223,7238.775
330.527160645,7202.1
330.824615479,7137.85
331.12210083,7033.15
331.419586182,6927.575
331.717041016,6858.475
332.014465332,6762.8
332.311920166,6744.8
332.609313965,6673.75
332.906707764,6666.825
333.204101562,6648.475
333.501495361,6668.025
333.798828125,6703.275
334.096160889,6729.675
334.39352417,6816.025
334.690795898,6884.975
334.988098145,6907.55
335.285400391,6982.0
335.582641602,6971.125
335.879882812,6998.125
336.177124023,7016.825
336.474334717,7109.725
336.77154541,7083.2
337.068725586,7128.025
337.365905762,7141.675
337.66305542,7145.475
337.960205078,7167.575
338.257324219,7178.075
338.554443359,7186.85
338.8515625,7185.625
339.148590088,7215.325
339.445648193,7210.925
339.742736816,7170.275
340.039764404,7159.325
340.336761475,7123.05
340.63381958,7039.8
340.930755615,7029.1
341.227722168,6943.4
341.524688721,6849.925
341.821624756,6824.925
342.118560791,6809.55
342.415496826,6915.975
342.712402344,7068.925
343.009246826,7227.25
343.306121826,7326.375
343.602966309,7406.45
343.899810791,7502.6
344.196624756,7604.925
344.493438721,7620.6
344.79019165,7651.75
345.086975098,7739.075
345.383758545,7776.15
345.680480957,7722.2
345.977203369,7757.075
346.273956299,7822.45
346.570617676,7802.35
346.86730957,7824.575
347.163970947,7797.275
347.460601807,7851.775
347.757232666,7851.75
348.053894043,7827.825
348.350463867,7748.425
348.647064209,7731.05
348.943634033,7700.2
349.24017334,7719.25
349.536712646,7661.7
349.833251953,7669.25
350.129760742,7646.075
350.426208496,7615.7
350.722747803,7608.55
351.019195557,7588.25
351.315612793,7557.7
351.612060547,7489.8
351.908508301,7448.3
352.204864502,7387.5
352.501281738,7336.95
352.797637939,7254.65
353.093963623,7179.75
353.390319824,7105.15
353.686645508,7013.425
353.982940674,6927.375
354.27923584,6887.675
354.575531006,6821.4
354.871765137,6820.8
355.167999268,6784.7
355.464233398,6794.925
355.760437012,6797.325
356.056640625,6802.1
356.352813721,6807.45
356.648956299,6825.025
356.945129395,6827.9
357.241271973,6814.65
357.537384033,6848.225
357.833496094,6773.6
358.129577637,6774.7
358.425628662,6731.45
358.721679688,6713.6
359.017730713,6668.15
359.313720703,6635.7
359.609710693,6592.3
359.905761719,6509.55
360.201721191,6477.625
360.497650146,6411.675
360.793609619,6385.325
361.089538574,6312.125
361.385437012,6228.775
361.681365967,6164.825
361.977233887,6118.175
362.273071289,6026.275
362.568908691,5931.7
362.864746094,5824.625
363.160552979,5674.25
363.456359863,5472.7
363.752166748,5338.85
364.047912598,5232.35
364.343658447,5178.1
364.639434814,5233.7
364.935119629,5261.075
365.230834961,5348.25
365.526550293,5379.3
365.822174072,5385.5
366.117858887,5372.35
366.413482666,5427.35
366.709075928,5458.625
367.004730225,5359.725
367.300292969,5359.475
367.595855713,5405.65
367.891448975,5290.9
368.186981201,5175.05
368.482513428,5122.05
368.778015137,5119.45
369.073547363,5054.675
369.36895752,5064.35
369.664428711,4948.425
369.95993042,4853.8
370.255310059,4795.225
370.550720215,4757.65
370.846160889,4739.05
371.14151001,4676.05
371.436859131,4651.025
371.73223877,4636.0
372.027557373,4588.15
372.322875977,4521.425
372.618164062,4500.1
372.913482666,4450.75
373.208709717,4438.225
373.503967285,4374.075
373.799194336,4315.825
374.094421387,4309.125
374.389648438,4278.775
374.684844971,4277.025
374.979980469,4329.5
375.275146484,4332.2
375.570281982,4341.325
375.865386963,4370.15
376.160522461,4302.625
376.455596924,4308.525
376.750640869,4426.325
377.045715332,4409.975
377.340759277,4460.25
377.635772705,4500.225
377.93081665,4542.025
378.225769043,4608.45
378.520751953,4699.5
378.815734863,4631.8
379.110656738,4803.0
379.405548096,4994.45
379.700500488,4827.75
379.995391846,4602.725
380.290252686,4645.525
380.585083008,4778.0
380.879974365,4804.85
381.17477417,4703.25
381.469543457,4628.675
381.764404297,4634.225
382.059143066,4655.4
382.353912354,4766.85
382.648651123,4847.975
382.943389893,4821.8
383.238067627,4656.325
383.532775879,4639.95
383.827484131,4583.075
384.12210083,4555.4
384.416778564,4516.4
384.711425781,4415.8
385.006011963,4455.975
385.300628662,4416.375
385.595184326,4502.7
385.88973999,4602.7
386.184295654,4716.6
386.478820801,4811.975
386.77331543,4890.825
387.067840576,5019.0
387.362335205,5134.225
387.656768799,5184.025
387.951202393,5243.125
388.245635986,5290.525
388.540039062,5380.0
388.834472656,5442.375
389.128875732,5334.8
389.423187256,5100.9
389.717559814,5028.625
390.011871338,5149.575
390.306182861,5195.275
390.600463867,5212.075
390.894775391,5263.5
391.189025879,5305.475
391.48324585,5324.225
391.777526855,5338.375
392.071685791,5569.6
392.365875244,5677.925
392.660064697,5768.675
392.95425415,6127.675
393.248382568,6088.725
393.542510986,5590.0
393.836608887,5410.6
394.130706787,5384.45
394.424804688,5335.375
394.71887207,5450.25
395.012878418,5434.525
395.306915283,5319.2
395.600921631,5243.075
395.894927979,5207.95
396.188903809,5289.7
396.482879639,5268.625
396.776794434,5498.475
397.070739746,5450.1
397.364654541,5478.775
397.658538818,5889.8
397.952423096,5909.6
398.246307373,5880.175
398.540100098,6452.975
398.833953857,6326.15
399.127746582,5798.4
399.421508789,5780.675
399.715301514,5748.55
400.009063721,5654.475
400.30279541,5469.475
400.596496582,5379.875
400.890258789,5570.625
401.183929443,5636.75
401.47756958,5527.425
401.771240234,5279.325
402.064880371,5299.225
402.35848999,5338.125
402.652130127,5228.3
402.945678711,5307.65
403.239257812,5248.775
403.532775879,5192.4
403.82635498,5252.45
404.119842529,5171.575
404.413360596,5152.8
404.706848145,5212.05
405.000274658,5117.475
405.293762207,5209.5
405.587188721,5273.375
405.880584717,5105.65
406.17401123,4889.45
406.467407227,4678.825
406.760742188,4694.45
407.054107666,4722.125
407.347442627,4654.65
407.640716553,4646.625
407.934051514,4674.25
408.227325439,4787.65
408.520568848,5014.125
408.813842773,5099.15
409.107086182,4881.725
409.400238037,4816.975
409.693450928,4751.05
409.986633301,4879.45
410.279754639,4797.35
410.572875977,4479.6
410.86605835,4394.8
411.159118652,4410.2
411.452209473,4433.2
411.745330811,4287.6
412.038360596,4192.075
412.331390381,4225.275
412.624420166,4290.85
412.917388916,4172.7
413.210388184,3967.65
413.503387451,3960.775
413.796295166,3844.325
414.089233398,3653.625
414.382141113,3574.625
414.675048828,3551.35
414.967926025,3572.85
415.260803223,3541.0
415.55368042,3553.375
415.846466064,3501.45
416.139282227,3600.6
416.432098389,3746.875
416.724853516,3719.825
417.017608643,3654.1
417.31036377,3679.25
417.603088379,3803.45
417.895782471,3788.05
418.188476562,3748.15
418.481140137,3810.475
418.773803711,3878.275
419.066436768,3839.5
419.359039307,3930.475
419.651641846,3938.525
419.944244385,3925.875
420.236816406,3883.525
420.529327393,4108.575
420.821899414,4179.3
421.114379883,4100.475
421.406860352,4414.925
421.699371338,4655.425
421.991821289,4606.025
422.284240723,4382.65
422.576721191,4216.1
422.869110107,4091.65
423.161468506,4035.925
423.453857422,4090.1
423.74621582,3953.575
424.038543701,3806.425
424.330871582,3775.0
424.623168945,3690.6
424.915435791,3841.475
425.207702637,3802.175
425.499969482,3742.2
425.792205811,3666.45
426.084411621,3404.5
426.376617432,3500.975
426.668762207,3579.3
426.9609375,3449.05
427.253082275,3574.825
427.545196533,4027.4
427.837310791,3706.7
428.129425049,3398.725
428.421447754,3628.35
428.713531494,3629.375
429.005554199,3638.625
429.297576904,3632.975
429.589599609,4090.625
429.881561279,4441.8
430.173522949,4194.775
430.465484619,4168.05
430.757415771,4241.1
431.049316406,3981.675
431.341186523,3742.4
431.633117676,3624.575
431.924957275,3298.8
432.21673584,3187.775
432.508636475,3343.275
432.800415039,3352.775
433.092163086,3238.6
433.383972168,3212.25
433.675689697,3983.15
433.967437744,4517.45
434.259155273,3485.25
434.550872803,3151.65
434.842498779,3191.8
435.134185791,3344.225
435.425842285,3369.65
435.717437744,3271.175
436.009063721,3064.75
436.30065918,3219.525
436.592224121,3596.65
436.883758545,3398.925
437.175323486,3094.15
437.466827393,3070.25
437.758331299,3087.4
438.049804688,3109.025
438.341247559,3183.575
438.63269043,3276.425
438.924163818,3265.35
439.215515137,3211.025
439.50692749,3097.575
439.798309326,3105.625
440.089660645,3110.625
440.380981445,3034.35
440.672332764,3010.6
440.963623047,3304.4
441.254882812,3807.45
441.546173096,4003.825
441.837402344,3724.25
442.128631592,3529.675
442.41986084,3515.325
442.711029053,3379.275
443.002197266,3438.875
443.293365479,3645.325
443.584503174,3766.975
443.875610352,3753.4
444.166717529,3459.825
444.457794189,3521.475
444.748840332,3515.325
445.039916992,3437.625
445.330932617,3560.125
445.621948242,3396.65
445.912963867,3180.6
446.203918457,3417.225
446.494812012,3686.35
446.785827637,3445.225
447.076721191,3252.925
447.367584229,3234.225
447.658447266,3200.35
447.949371338,3253.325
448.24017334,3127.65
448.530975342,3055.675
448.821838379,3242.7
449.112579346,3305.725
449.40335083,3247.55
449.694152832,3278.6
449.984863281,3287.3
450.27557373,3202.225
450.56628418,3288.5
450.856933594,3285.75
451.147583008,3132.675
451.438262939,3004.65
451.728881836,3225.35
452.019470215,3333.975
452.310089111,3105.525
452.600646973,3135.85
452.891174316,3189.55
453.181732178,3009.875
453.472229004,2871.15
453.762695312,2995.775
454.053222656,3021.275
454.343658447,2871.2
454.634063721,2809.525
454.924530029,3002.575
455.214935303,3156.175
455.505279541,3228.275
455.795715332,3075.225
456.086029053,2856.75
456.376312256,2854.675
456.666687012,2887.425
456.956939697,2989.85
457.247192383,2975.8
457.537445068,3065.5
457.827728271,3267.85
458.117919922,3172.4
458.408081055,3109.25
458.698303223,3289.375
458.988433838,3242.8
459.278564453,3049.025
459.568725586,3330.15
459.858825684,3457.9
460.148864746,3125.625
460.438995361,3080.7
460.729034424,3148.4
461.019042969,3159.8
461.309082031,3363.25
461.599060059,3260.025
461.889007568,2736.55
462.179016113,2549.15
462.468933105,2802.825
462.75881958,2939.05
463.048736572,2650.75
463.338592529,2945.1
463.628448486,3336.475
463.918365479,3000.725
464.2081604,3189.15
464.497924805,3161.7
464.787780762,3275.0
465.077514648,3617.275
465.367218018,3206.95
465.657012939,3428.575
465.946685791,3859.425
466.236358643,3424.4
466.526092529,2858.7
466.815734863,2858.3
467.105316162,2790.35
467.394927979,2810.225
467.684570312,2657.55
467.974121094,2753.825
468.263671875,2877.65
468.553222656,2630.1
468.842773438,2522.95
469.132232666,2414.7
469.42175293,2429.05
469.711212158,2398.275
470.000640869,2271.375
470.290100098,2327.625
470.579498291,2375.3
470.868835449,2365.925
471.158294678,2318.325
471.447601318,2312.725
471.736907959,2379.85
472.026275635,2465.575
472.315551758,2431.75
472.604797363,2438.1
472.894104004,2568.075
473.183319092,2690.625
473.47253418,2691.75
473.761779785,2674.475
474.05090332,2589.5
474.340087891,2537.675
474.629241943,2477.825
474.918365479,2664.1
475.207427979,2966.675
475.496551514,2993.5
475.785614014,2720.5
476.074645996,2474.525
476.363708496,2593.725
476.652679443,2748.775
476.941650391,2548.875
477.230682373,2363.95
477.519622803,2390.05
477.808502197,2544.925
478.097412109,2849.925
478.386352539,2767.4
478.675201416,2488.225
478.964050293,2382.85
479.25289917,2587.0
479.541717529,2648.875
479.830474854,2479.15
480.11932373,2855.9
480.408050537,3059.325
480.696777344,2625.425
480.985534668,2483.1
481.274200439,2586.0
481.562866211,2858.3
481.851593018,2889.075
482.140197754,2823.15
482.428833008,2656.45
482.717468262,2417.025
483.006011963,2452.875
483.294586182,2601.8
483.5831604,2634.925
483.871673584,2478.475
484.16015625,2636.3
484.448699951,2897.825
484.7371521,2930.1
485.02557373,2951.5
485.314025879,2652.025
485.602416992,4125.9
485.890777588,14510.9
486.179199219,13023.95
486.467559814,3503.8
486.755859375,2539.15
487.044219971,2953.425
487.332519531,3170.25
487.620758057,2709.175
487.908966064,2449.375
488.197265625,2219.925
488.485473633,2111.55
488.773651123,2239.15
489.061859131,2221.8
489.350006104,2175.075
489.638122559,2110.4
489.926300049,2135.25
490.214355469,2087.9
490.502441406,2032.9
490.790527344,1969.6
491.078552246,2172.125
491.366546631,2160.8
491.654602051,1913.6
491.942565918,2002.4
492.230499268,2048.85
492.518493652,1996.625
492.806396484,2041.6
493.094268799,1941.2
493.382202148,1983.325
493.670074463,2106.7
493.957885742,1951.525
494.245727539,1939.35
494.533508301,2127.425
494.821289062,1995.425
495.109100342,1829.925
495.396850586,1793.275
495.684539795,1731.275
495.972290039,1972.95
496.25994873,2349.2
496.547607422,2361.525
496.835296631,2160.6
497.122894287,1791.15
497.410522461,1705.875
497.6980896,1719.05
497.985687256,1675.25
498.273223877,1787.775
498.560760498,1873.2
498.848266602,1903.675
499.135772705,1859.5
499.423217773,1917.8
499.710693359,2034.05
499.998138428,1960.1
500.285522461,1787.425
500.572937012,1689.375
500.860290527,1769.525
501.147644043,1859.35
501.434997559,2115.725
501.722290039,1957.95
502.00958252,1709.9
502.296875,2001.625
502.584106445,1992.575
502.871337891,1787.1
503.158599854,1877.5
503.445770264,1973.8
503.732910156,1921.1
504.020141602,1734.7
504.307220459,1701.1
504.594329834,1738.5
504.881469727,1678.55
505.168518066,1754.525
505.455535889,1827.525
505.742614746,1703.95
506.029632568,1628.275
506.316589355,1830.9
506.603637695,1927.425
506.890563965,1708.525
507.177459717,1535.575
507.464385986,1434.125
507.751312256,1682.85
508.038146973,1782.275
508.325012207,1618.95
508.611877441,1675.85
508.898681641,1696.525
509.185424805,1510.6
509.472259521,1480.475
509.759002686,1564.625
510.045715332,1598.7
510.332458496,1540.7
510.619140625,1605.6
510.905761719,1511.5
511.192504883,1487.1
511.479095459,1549.425
511.765686035,1496.075
512.052307129,1412.0
512.338928223,1349.7
512.625427246,1408.975
512.91204834,1479.875
513.198486328,1457.8
513.484985352,1418.125
513.77142334,1330.1
514.057922363,1379.425
514.344299316,1370.9
514.63079834,1330.925
514.917175293,1317.2
515.203552246,1214.3
515.489868164,1193.85
515.776245117,1321.625
516.0625,1364.8
516.348815918,1268.9
516.635070801,1307.325
516.921325684,1355.225
517.207580566,1299.8
517.493774414,1200.4
517.779968262,1209.225
518.066101074,1252.175
518.352294922,1191.9
518.638366699,1195.975
518.924499512,1294.8
519.210632324,1370.275
519.496643066,1326.2
519.782714844,1217.8
520.068786621,1184.875
520.354736328,1137.375
520.640686035,1099.225
520.926757812,1141.875
521.212646484,1231.825
521.498535156,1241.75
521.784484863,1179.125
522.0703125,1098.625
522.356262207,1127.55
522.642089844,1204.2
522.927856445,1199.55
523.213684082,1183.675
523.499511719,1185.3
523.78527832,1220.575
524.070983887,1275.5
524.356750488,1252.375
524.64239502,1220.15
524.928039551,1208.65
525.213806152,1220.075
525.499389648,1206.575
525.784973145,1252.775
526.070617676,1280.55
526.356140137,1249.25
526.641723633,1251.925
526.927307129,1317.475
527.212768555,1338.65
527.498291016,1300.9
527.783752441,1307.525
528.069213867,1288.35
528.354675293,1309.8
528.640014648,1486.85
528.925476074,1576.525
529.21081543,1484.425
529.496154785,1454.225
529.781555176,1411.2
530.066833496,1438.625
530.352050781,1450.275
530.637390137,1440.525
530.922607422,1434.175
531.207824707,1438.0
531.493041992,1424.9
531.778198242,1504.775
532.063354492,1475.825
532.348571777,1410.925
532.633666992,1431.675
532.918762207,1519.15
533.203857422,1613.775
533.488891602,1635.0
533.773925781,1584.175
534.059020996,1551.75
534.343933105,1583.5
534.628967285,1551.75
534.91394043,1578.475
535.198852539,1583.675
535.483703613,1554.175
535.768676758,1504.975
536.053527832,1504.975
536.338317871,1455.25
536.62322998,1388.25
536.90802002,1359.475
537.192810059,1382.9
537.477539062,1465.925
537.762329102,1517.675
538.047058105,1549.75
538.331726074,1594.175
538.616455078,1593.825
538.901123047,1554.65
539.18572998,1607.525
539.470397949,1605.95
539.755004883,1585.325
540.039550781,1557.625
540.32409668,1503.625
540.608703613,1557.25
540.893188477,1663.225
541.17767334,1670.825
541.462158203,1676.725
541.746643066,1612.525
542.031066895,1669.95
542.315429688,1709.25
542.59979248,1704.675
542.884216309,1683.975
543.168579102,1681.0
543.452941895,1688.65
543.737243652,1743.225
544.021484375,1800.45
544.305725098,1782.55
544.590026855,1758.15
544.874267578,1775.4
545.158447266,1851.1
545.442626953,1763.75
545.726806641,1640.475
546.010925293,1679.725
546.29510498,1712.3
546.579162598,1696.575
546.863220215,1740.125
547.147277832,1821.85
547.431335449,1916.2
547.715332031,1980.275
547.999328613,2099.1
548.283325195,2098.575
548.567260742,1939.925
548.851135254,1911.4
549.135070801,1876.975
549.419006348,1774.6
549.702819824,1879.375
549.986755371,1966.45
550.270507812,1920.4
550.554321289,1959.5
550.83807373,1992.475
551.121826172,1938.1
551.405517578,1951.7
551.689331055,2073.65
551.973022461,2326.425
552.256652832,2387.425
552.540344238,2287.2
552.823974609,2245.9
553.107543945,2237.0
553.391174316,2302.4
553.674743652,2354.975
553.958251953,2373.65
554.241821289,2380.2
554.525268555,2316.375
554.808776855,2313.6
555.092285156,2528.0
555.375671387,2611.05
555.659057617,2586.025
555.942504883,2638.925
556.225891113,2678.375
556.509216309,2643.9
556.792541504,2527.525
557.075866699,2608.925
557.359130859,2654.9
557.64239502,2650.5
557.92565918,2743.125
558.208862305,2714.525
558.49206543,2650.175
558.77532959,2666.4
559.058410645,2721.925
559.341552734,2674.925
559.624694824,2761.5
559.907775879,2818.525
560.190856934,2958.15
560.473937988,2956.95
560.756896973,2994.8
561.039978027,3032.3
561.322937012,2973.45
561.605895996,2974.375
561.88885498,2943.025
562.171813965,2939.025
562.454650879,2933.325
562.737548828,2979.125
563.020446777,3056.2
563.303283691,3069.2
563.58605957,3095.95
563.868896484,3126.675
564.151672363,3158.65
564.434387207,3216.675
564.717163086,3177.775
564.99987793,3222.375
565.282531738,3286.9
565.565185547,3224.45
565.847839355,3231.35
566.130432129,3362.65
566.413085938,3337.475
566.695678711,3334.75
566.978149414,3468.275
567.260681152,3626.2
567.543273926,3694.45
567.825744629,3589.675
568.108154297,3630.475
568.390686035,3766.925
568.673095703,3905.7
568.955505371,3940.55
569.237854004,3986.675
569.520202637,4253.075
569.802490234,4490.175
570.084838867,4474.025
570.367126465,4299.65
570.649414062,4327.675
570.93170166,4721.1
571.213928223,4779.575
571.496154785,4506.025
571.778381348,4762.875
572.06048584,5038.525
572.342590332,4538.75
572.624755859,4161.825
572.906860352,4228.8
573.188903809,4995.625
573.470947266,5231.125
573.752990723,4987.8
574.03503418,5085.95
574.317016602,5509.675
574.598937988,5264.925
574.88092041,5137.725
575.162841797,5338.075
575.444763184,4948.4
575.726623535,4654.725
576.008483887,4702.475
576.290344238,5125.4
576.572143555,5358.625
576.853881836,5435.05
577.135681152,5305.775
577.417419434,5374.275
577.699157715,6320.55
577.980895996,6487.725
578.262573242,5789.05
578.544128418,5266.875
578.825866699,5184.1
579.107421875,4842.175
579.388977051,5031.825
579.670593262,5460.2
579.952148438,5287.85
580.233642578,5419.675
580.515197754,5538.5
580.796691895,5172.275
581.078125,5379.275
581.359619141,6990.15
581.640991211,7100.025
581.922363281,6129.2
582.203796387,6214.6
582.485107422,5801.95
582.766418457,5374.7
583.047790527,5208.175
583.329040527,5108.225
583.610290527,4937.8
583.891540527,5065.1
584.172790527,5390.35
584.453918457,5407.775
584.735107422,5464.825
585.016235352,5954.375
585.297363281,5932.975
585.578552246,5693.4
585.859619141,5661.6
586.140625,5394.925
586.421630859,5252.35
586.702697754,5313.65
586.983642578,5523.025
587.264648438,5697.6
587.545654297,5658.35
587.826477051,5583.6
588.107421875,5354.075
588.388305664,5416.75
588.669189453,5510.225
588.950012207,5355.9
589.230834961,5254.025
589.511657715,5350.425
589.792358398,5413.5
590.073120117,5435.175
590.353881836,5410.325
590.63458252,5424.925
590.915283203,5401.375
591.195922852,5376.075
591.4765625,5418.9
591.757202148,5453.775
592.037780762,5446.575
592.31829834,5443.15
592.598937988,5675.65
592.879394531,5843.7
593.159912109,5766.5
593.440429688,5684.15
593.720825195,5640.15
594.001281738,5628.475
594.281677246,5549.025
594.562072754,5559.75
594.842407227,5660.475
595.122802734,5712.275
595.403137207,5680.275
595.683410645,5673.9
595.963623047,5649.55
596.243896484,5625.45
596.524169922,5605.85
596.804382324,5604.975
597.084533691,5654.5
597.364746094,5673.9
597.644836426,5709.925
597.924987793,5681.05
598.205078125,5650.9
598.485107422,5678.95
598.765197754,5793.775
599.045227051,5849.525
599.325195312,5766.1
599.605224609,5711.2
599.885192871,5752.2
600.165100098,5817.325
600.445007324,5725.675
600.724914551,5736.5
601.004760742,5767.3
601.284667969,5772.0
601.56451416,5734.275
601.844238281,5732.175
602.124084473,5730.625
602.403808594,5729.125
602.683532715,5793.0
602.963256836,5778.875
603.242919922,5812.0
603.522583008,5848.0
603.802246094,5837.15
604.081848145,5778.35
604.36138916,5748.85
604.641052246,5808.125
604.920532227,5755.075
605.200073242,5792.175
605.479614258,5821.15
605.759094238,5857.475
606.038574219,5863.825
606.317932129,5785.475
606.597412109,5758.925
606.87677002,5798.15
607.15612793,5811.175
607.435546875,5829.175
607.714782715,5823.375
607.99407959,5796.975
608.273376465,5785.225
608.552612305,5786.65
608.831848145,5818.825
609.111083984,5808.2
609.390258789,5791.225
609.669433594,5788.05
609.948608398,5844.475
610.227722168,5826.85
610.506713867,5746.2
610.785888672,5789.675
611.064880371,5776.525
611.34387207,5790.725
611.622924805,5807.375
611.901916504,5793.8
612.180847168,5770.35
612.459777832,5727.325
612.738647461,5735.1
613.01751709,5733.025
613.296447754,5661.45
613.575317383,5635.6
613.854064941,5589.675
614.132873535,5475.35
614.411621094,5434.9
614.690368652,5408.225
614.969177246,5331.65
615.247802734,5238.475
615.526489258,5230.125
615.805175781,5099.475
616.08380127,4984.925
616.362365723,4907.225
616.640991211,4880.35
616.919555664,4801.1
617.198059082,4918.175
617.4765625,5188.625
617.755126953,5343.7
618.033569336,5377.175
618.311950684,5346.975
618.590454102,5373.1
618.868774414,5340.0
619.147155762,5362.225
619.425598145,5340.075
619.703857422,5338.75
619.982177734,5348.75
620.260498047,5303.3
620.538757324,5341.65
620.816955566,5292.25
621.095214844,5248.65
621.373413086,5272.925
621.651550293,5335.5
621.929748535,5354.975
622.207824707,5330.75
622.485900879,5351.85
622.764038086,5354.075
623.042053223,5391.425
623.320007324,5387.4
623.598083496,5409.175
623.876037598,5385.75
624.153991699,5385.85
624.432006836,5440.8
624.709838867,5433.35
624.987731934,5422.425
625.265563965,5392.85
625.543395996,5442.725
625.821228027,5485.7
626.098999023,5492.725
626.376831055,5528.775
626.654541016,5542.95
626.932250977,5567.15
627.209960938,5606.0
627.487670898,5640.075
627.765319824,5649.95
628.04296875,5648.375
628.320495605,5680.575
628.598083496,5684.85
628.875671387,5717.3
629.153259277,5744.775
629.430725098,5787.9
629.708251953,5784.65
629.985656738,5816.625
630.263122559,5835.7
630.540588379,5869.525
630.817932129,5886.1
631.095275879,5910.975
631.372680664,5975.55
631.649963379,6008.025
631.927246094,6055.775
632.204589844,6086.275
632.481811523,6124.2
632.759033203,6229.05
633.036254883,6230.475
633.313415527,6347.875
633.590576172,6370.925
633.867736816,6495.6
634.144836426,6544.975
634.421875,6590.1
634.698913574,6648.7
634.976013184,6711.125
635.252990723,6788.35
635.529968262,6806.6
635.807006836,6899.95
636.08392334,6878.25
636.360839844,6786.75
636.637756348,6661.225
636.914611816,6663.725
637.191467285,6623.175
637.468261719,6699.175
637.745056152,6651.025
638.021789551,6694.55
638.298583984,6699.625
638.575317383,6748.375
638.851989746,6740.325
639.12878418,6756.05
639.405395508,6762.425
639.682006836,6776.575
639.958618164,6789.775
640.235229492,6772.9
640.511779785,6822.025
640.788330078,6822.8
641.064880371,6796.85
641.341308594,6777.7
641.617797852,6793.15
641.894226074,6794.225
642.170654297,6811.4
642.44708252,6794.35
642.723388672,6816.075
642.999755859,6827.825
643.276123047,6803.125
643.552429199,6779.8
643.828674316,6786.85
644.104919434,6768.925
644.381164551,6724.35
644.657348633,6778.55
644.933532715,6753.425
645.209716797,6748.575
645.485839844,6736.65
645.761901855,6733.45
646.038024902,6728.475
646.314086914,6783.975
646.590087891,6735.65
646.866149902,6760.875
647.142150879,6729.45
647.41809082,6701.925
647.694030762,6712.7
647.969970703,6663.275
648.245788574,6717.5
648.521728516,6723.7
648.797546387,6675.65
649.073303223,6714.925
649.349182129,6669.275
649.624938965,6662.975
649.900634766,6685.125
650.176391602,6663.25
650.452087402,6659.2
650.727783203,6656.55
651.003479004,6685.5
651.279052734,6672.625
651.554626465,6658.55
651.83026123,6665.175
652.105773926,6679.0
652.381286621,6665.425
652.656860352,6650.95
652.932312012,6663.8
653.207763672,6675.425
653.483215332,6713.425
653.758605957,6699.475
654.033935547,6674.175
654.309326172,6686.825
654.584716797,6710.95
654.859985352,6683.325
655.135253906,6731.125
655.410583496,6781.025
655.685791016,7773.025
655.9609375,12117.1
656.236206055,11836.425
656.511291504,7868.275
656.786437988,6896.625
657.061645508,6776.65
657.336669922,6766.725
657.611694336,6825.85
657.886779785,6850.225
658.161804199,6828.175
658.436828613,6787.975
658.711791992,6799.425
658.986755371,6852.65
659.261657715,6823.3
659.536621094,6848.975
659.811401367,6868.625
660.086303711,6897.95
660.36114502,6867.25
660.635864258,6889.875
660.910644531,6930.1
661.185424805,6918.0
661.460205078,6951.875
661.734863281,6953.25
662.009521484,6928.625
662.284179688,6958.55
662.558776855,7002.05
662.833435059,7017.375
663.108032227,7028.225
663.382568359,7019.5
663.657043457,7075.225
663.93157959,7080.975
664.206054688,7052.95
664.48046875,7121.925
664.755004883,7158.05
665.02935791,7139.125
665.303710938,7188.125
665.578125,7215.1
665.852416992,7205.875
666.126708984,7203.5
666.401062012,7227.675
666.675292969,7261.7
666.949462891,7270.55
667.223754883,7264.35
667.497924805,7278.55
667.772094727,7287.4
668.046264648,7267.975
668.3203125,7340.225
668.594421387,7357.25
668.868469238,7396.4
669.14251709,7395.275
669.416503906,7414.65
669.690551758,7428.3
669.964477539,7435.15
670.23840332,7401.55
670.512329102,7409.3
670.786254883,7406.825
671.060058594,7438.425
671.333984375,7496.15
671.607788086,7498.8
671.881530762,7507.45
672.155334473,7529.025
672.429077148,7556.375
672.702758789,7558.875
672.97644043,7547.25
673.25012207,7551.725
673.523742676,7566.95
673.797302246,7568.6
674.070922852,7663.025
674.344482422,7624.525
674.618041992,7645.25
674.891601562,7658.175
675.165100098,7661.25
675.438476562,7681.9
675.711975098,7682.9
675.985412598,7666.175
676.258789062,7642.45
676.532165527,7702.15
676.805480957,7716.125
677.078796387,7754.525
677.352111816,7763.25
677.625366211,7762.175
677.898620605,7742.075
678.171875,7799.275
678.445007324,7772.525
678.718200684,7817.925
678.991394043,7813.525
679.264404297,7832.0
679.537536621,7819.675
679.81060791,7829.7
680.083679199,7855.85
680.356689453,7868.375
680.629699707,7869.15
680.902648926,7838.45
681.175598145,7900.775
681.448547363,7982.45
681.721435547,7906.075
681.99420166,7903.725
682.267150879,7923.15
682.539916992,7958.1
682.812744141,7964.8
683.085510254,7963.975
683.358215332,7980.85
683.63092041,7968.55
683.903625488,7984.3
684.176330566,7984.825
684.448913574,7954.6
684.721557617,7934.55
684.99420166,8040.45
685.266662598,8011.925
685.539245605,8001.55
685.811767578,8072.875
686.084289551,8074.75
686.356689453,8107.85
686.629150391,8094.35
686.901550293,8128.2
687.17401123,8106.55
687.446350098,8168.05
687.718688965,8170.025
687.990966797,8217.55
688.263305664,8212.3
688.535522461,8198.725
688.807739258,8209.325
689.079956055,8256.025
689.352172852,8278.45
689.624328613,8262.5
689.896484375,8298.275
690.168518066,8297.325
690.440612793,8346.55
690.71270752,8327.55
690.984741211,8364.775
691.256713867,8391.175
691.528747559,8404.65
691.800720215,8376.375
692.072631836,8419.225
692.344543457,8444.3
692.616394043,8438.325
692.888244629,8461.5
693.160095215,8477.85
693.431945801,8537.5
693.703674316,8490.475
693.975463867,8457.15
694.247131348,8521.4
694.518859863,8539.4
694.790588379,8576.875
695.062255859,8570.575
695.33380127,8550.775
695.60546875,8563.675
695.87701416,8621.3
696.148498535,8633.125
696.42010498,8653.6
696.691589355,8662.725
696.96307373,8686.4
697.234558105,8744.125
697.50592041,8740.2
697.777282715,8725.75
698.048706055,8732.25
698.320068359,8782.2
698.591308594,8724.1
698.862670898,8734.375
699.133972168,8791.0
699.405151367,8751.725
699.676391602,8840.075
699.947570801,8809.9
700.21875,8822.85
700.489868164,8853.175
700.761047363,8850.575
701.032104492,8909.925
701.303100586,8861.775
701.57421875,8947.45
701.845214844,8925.925
702.116149902,8962.4
702.387207031,8927.725
702.65814209,8968.975
702.928955078,8998.625
703.199951172,8944.825
703.47076416,8948.425
703.741577148,8917.2
704.012451172,8988.125
704.28314209,8988.4
704.553955078,8962.7
704.824707031,8997.475
705.095397949,9013.0
705.366027832,9030.825
705.63671875,9066.45
705.907348633,9043.45
706.17791748,9064.675
706.448486328,9083.7
706.719055176,9120.175
706.989562988,9117.425
707.260131836,9154.05
707.530517578,9168.475
707.800964355,9159.95
708.071411133,9129.825
708.341796875,9145.575
708.612182617,9148.45
708.882446289,9099.675
709.152893066,9145.3
709.423156738,9200.6
709.693359375,9107.525
709.963623047,9157.3
710.233825684,9182.375
710.503967285,9144.75
710.774169922,9135.35
711.044311523,9154.85
711.31439209,9151.875
711.584533691,9193.125
711.854553223,9179.55
712.124572754,9220.75
712.39465332,9162.15
712.664611816,9242.075
712.934509277,9267.4
713.204467773,9236.85
713.474365234,9269.25
713.74420166,9226.275
714.014099121,9239.725
714.283874512,9232.05
714.553710938,9274.75
714.823486328,9259.3
715.093200684,9266.725
715.362915039,9292.2
715.632629395,9272.5
715.902282715,9246.65
716.171875,9254.725
716.441589355,9221.825
716.711181641,9237.95
716.980712891,9268.625
717.250244141,9219.125
717.519775391,9271.525
717.78918457,9278.95
718.058654785,9318.125
718.328125,9336.625
718.597473145,9287.775
718.866882324,9315.4
719.136230469,9324.3
719.405578613,9345.425
719.674865723,9359.525
719.944152832,9331.525
720.213439941,9270.35
720.48260498,9340.025
720.75177002,9346.025
721.020996094,9352.075
721.290100098,9336.65
721.559204102,9317.35
721.828308105,9377.975
722.097351074,9373.975
722.366455078,9339.975
722.635437012,9299.25
722.904418945,9290.4
723.173400879,9341.55
723.442321777,9356.425
723.711181641,9338.175
723.980102539,9358.95
724.248962402,9363.35
724.51776123,9343.325
724.786560059,9375.775
725.055358887,9347.975
725.324035645,9329.1
725.592834473,9376.075
725.86151123,9343.075
726.130187988,9348.975
726.398803711,9335.0
726.667419434,9348.4
726.935974121,9341.975
727.204528809,9285.975
727.473083496,9320.225
727.741638184,9272.6
728.010070801,9234.075
728.278564453,9232.875
728.546936035,9228.825
728.815368652,9167.125
729.08380127,9108.825
729.352111816,9063.875
729.620361328,8986.825
729.88873291,9063.05
730.156982422,9101.025
730.425231934,9121.8
730.693481445,9093.925
730.961669922,9169.425
731.229797363,9203.475
731.49798584,9212.6
731.766113281,9253.3
732.034118652,9345.375
732.302246094,9380.275
732.570251465,9431.425
732.838256836,9475.1
733.106262207,9546.125
733.374145508,9599.475
733.642089844,9651.375
733.909973145,9717.4
734.177856445,9809.75
734.445678711,9874.875
734.713562012,9980.5
734.981323242,9988.45
735.249084473,10048.35
735.516845703,10209.6
735.784545898,10253.225
736.052185059,10288.2
736.319885254,10406.425
736.587524414,10450.025
736.855102539,10498.15
737.122619629,10647.575
737.390197754,10650.175
737.657714844,10770.675
737.925170898,10801.2
738.192749023,10932.275
738.460144043,10989.625
738.727539062,11041.125
738.994995117,11169.7
739.262329102,11257.25
739.529663086,11379.425
739.79699707,11416.225
740.06427002,11470.475
740.331481934,11551.95
740.598754883,11636.05
740.865905762,11655.6
741.133056641,11820.025
741.40032959,11831.6
741.667358398,11890.825
741.934448242,11934.75
742.201599121,11968.925
742.468566895,12050.35
742.735534668,12117.65
743.002563477,12135.5
743.26953125,12146.15
743.536437988,12183.975
743.803405762,12304.875
744.0703125,12271.05
744.337097168,12359.6
744.604003906,12277.475
744.870727539,12356.125
745.137512207,12438.675
745.40423584,12464.1
745.670959473,12442.125
745.93762207,12467.225
746.204284668,12495.075
746.470947266,12474.675
746.737548828,12450.175
747.004089355,12516.725
747.270751953,12541.35
747.53717041,12579.975
747.803710938,12490.825
748.070251465,12478.775
748.336608887,12474.725
748.603027344,12418.3
748.869445801,12457.225
749.135803223,12464.05
749.402099609,12458.925
749.668457031,12469.275
749.934753418,12450.5
750.20098877,12384.525
750.467224121,12462.7
750.733459473,12412.025
750.999572754,12358.425
751.26574707,12279.875
751.531860352,12322.75
751.797912598,12283.75
752.064025879,12215.075
752.330078125,12253.9
752.596069336,12210.0
752.862060547,12186.05
753.127990723,12189.975
753.393920898,12178.6
753.659912109,12095.75
753.925720215,12170.825
754.19152832,12104.35
754.457397461,12044.375
754.723144531,12024.85
754.988952637,11961.575
755.254699707,12018.125
755.520385742,11992.65
755.786071777,12005.7
756.051696777,11999.55
756.317382812,11948.375
756.582946777,11904.275
756.848510742,11913.9
757.114074707,11893.075
757.379577637,11870.175
757.645080566,11930.125
757.910583496,11857.35
758.175964355,11803.85
758.441345215,11797.65
758.706848145,11635.025
758.972106934,11622.975
759.237426758,11668.7
759.502807617,11690.8
759.768005371,11640.0
760.03326416,11607.2
760.298522949,11513.325
760.563659668,11566.525
760.828857422,11536.925
761.093994141,11507.15
761.359130859,11451.5
761.624206543,11446.675
761.889282227,11389.675
762.15423584,11393.025
762.419250488,11388.375
762.684265137,11335.95
762.949157715,11324.75
763.214050293,11337.0
763.479003906,11312.125
763.743835449,11307.225
764.008666992,11221.925
764.2734375,11234.325
764.538208008,11249.025
764.802978516,11308.825
765.067687988,11233.25
765.332397461,11221.025
765.597045898,11184.625
765.861694336,11166.5
766.126342773,11107.925
766.390930176,11086.325
766.655395508,11037.175
766.920043945,11022.675
767.184509277,11005.225
767.448974609,11042.8
767.713439941,11001.125
767.977783203,10954.125
768.2421875,11003.45
768.506591797,10961.325
768.770874023,11036.875
769.03515625,10997.375
769.299499512,11005.075
769.563720703,10976.275
769.827941895,10881.875
770.092163086,10872.15
770.356323242,10877.0
770.620483398,10941.0
770.88458252,10901.675
771.148681641,10893.75
771.412719727,10881.95
771.676757812,10881.35
771.940734863,10840.6
772.204711914,10832.1
772.468688965,10804.475
772.73260498,10787.55
772.996459961,10814.0
773.260314941,9617.075
773.524169922,1224.75
773.787963867,155.1
774.051696777,123.75
774.315551758,121.2
774.579223633,122.45
774.842895508,122.975
775.106567383,122.3
775.370239258,120.4
775.633789062,122.9
775.897399902,123.275
776.160949707,118.275
776.424499512,121.225
776.687988281,124.875
776.951477051,125.9
777.214904785,120.7
777.47833252,120.725
