191.299911499,99.9
191.603515625,104.625
191.907119751,98.5
192.210693359,105.6
192.514251709,100.325
192.817810059,102.625
193.121368408,104.325
193.42489624,105.25
193.728408813,101.325
194.031936646,96.65
194.33543396,92.85
194.638916016,111.45
194.94241333,97.5
195.245880127,96.75
195.549331665,96.875
195.852767944,101.425
196.156204224,192.65
196.459625244,186.3
196.763015747,186.45
197.066436768,196.7
197.369812012,186.75
197.673187256,188.825
197.9765625,181.875
198.279922485,187.5
198.583251953,180.85
198.886581421,188.5
199.18989563,194.15
199.493209839,191.225
199.79649353,183.575
200.09979248,191.525
200.403076172,184.95
200.706314087,190.275
201.009567261,187.55
201.312820435,192.275
201.616027832,177.9
201.919235229,177.0
202.222457886,180.925
202.525634766,180.325
202.828826904,178.3
203.132003784,179.475
203.435150146,178.525
203.738296509,179.5
204.041412354,177.55
204.344558716,183.825
204.647659302,181.625
204.950759888,184.45
205.253845215,181.875
205.556930542,179.175
205.859985352,180.75
206.163024902,180.525
206.466079712,184.175
206.769104004,190.975
207.072113037,183.925
207.375137329,187.75
207.678131104,185.675
207.981109619,180.625
208.284088135,179.975
208.587036133,186.8
208.889984131,185.2
209.19291687,190.375
209.495849609,189.4
209.798751831,189.6
210.101654053,185.3
210.404556274,191.0
210.707427979,186.075
211.010269165,197.45
211.31312561,192.625
211.615982056,193.8
211.918807983,194.0
212.221618652,191.3
212.524429321,189.0
212.827224731,196.0
213.130004883,192.0
213.432769775,198.025
213.735534668,194.35
214.038269043,199.325
214.341003418,199.6
214.643737793,202.4
214.946456909,209.275
215.249145508,207.625
215.551834106,209.125
215.854507446,208.95
216.157165527,207.85
216.45980835,205.1
216.762451172,213.625
217.065078735,214.5
217.36769104,210.025
217.670303345,216.15
217.972885132,220.125
218.275466919,221.925
218.578048706,211.05
218.880599976,226.925
219.183120728,225.6
219.485656738,227.7
219.788192749,238.9
220.090682983,253.875
220.393188477,265.1
220.695663452,300.375
220.998138428,327.075
221.300582886,359.15
221.603042603,392.65
221.905487061,443.775
222.207901001,494.925
222.510299683,564.675
222.812728882,632.975
223.115097046,716.575
223.41746521,799.625
223.719848633,877.6
224.022171021,971.475
224.324508667,1066.725
224.626846313,1197.675
224.929168701,1286.9
225.231460571,1391.05
225.533737183,1506.15
225.836013794,1618.975
226.138290405,1726.35
226.440536499,1811.525
226.742767334,1895.025
227.044998169,2003.85
227.347213745,2123.675
227.649429321,2206.45
227.951629639,2275.9
228.253799438,2360.475
228.555953979,2432.3
228.858123779,2499.475
229.160263062,2554.825
229.462371826,2624.95
229.764511108,2685.65
230.066619873,2728.55
230.36869812,2794.325
230.670776367,2844.0
230.972854614,2915.9
231.274902344,2962.125
231.576950073,3051.175
231.878967285,3105.825
232.180999756,3164.425
232.48298645,3242.025
232.784988403,3307.3
233.086975098,3375.675
233.388946533,3416.05
233.69090271,3491.15
233.992858887,3564.15
234.294769287,3576.725
234.596694946,3636.1
234.898605347,3725.85
235.200500488,3771.35
235.502380371,3826.675
235.804244995,3852.95
236.106109619,3838.3
236.407958984,3874.575
236.709777832,3963.325
237.011581421,3991.275
237.313400269,3995.55
237.615203857,4010.9
237.916976929,4046.75
238.21875,4085.475
238.520507812,4110.375
238.822250366,4148.15
239.12399292,4158.7
239.425704956,4190.875
239.727401733,4209.15
240.02911377,4255.725
240.330780029,4251.3
240.632446289,4257.875
240.93409729,4292.875
241.23576355,4357.9
241.537384033,4369.5
241.839004517,4394.575
242.140594482,4436.375
242.442199707,4475.0
242.743774414,4526.4
243.045333862,4552.9
243.346923828,4575.425
243.648452759,4618.675
243.949966431,4629.825
244.251495361,4688.625
244.552993774,4700.875
244.854492188,4715.025
245.155975342,4727.175
245.457443237,4779.75
245.758880615,4769.725
246.060333252,4798.15
246.36177063,4798.05
246.66317749,4794.375
246.964569092,4805.125
247.265945435,4848.425
247.567337036,4844.4
247.86869812,4869.25
248.170059204,4905.775
248.471389771,4903.7
248.772705078,4967.875
249.074035645,5009.0
249.375335693,5045.275
249.676620483,5103.675
249.977890015,5147.475
250.279159546,5207.425
250.58039856,5295.975
250.881637573,5337.9
251.182876587,5442.85
251.484069824,5523.0
251.785263062,5608.75
252.086456299,5679.275
252.387619019,5739.1
252.688781738,5813.725
252.989929199,5899.4
253.291061401,5996.2
253.592178345,6069.975
253.893280029,6136.725
254.194366455,6231.475
254.49546814,6234.075
254.796524048,6290.1
255.097579956,6368.65
255.398620605,6380.975
255.699645996,6450.675
256.000640869,6446.125
256.30166626,6513.75
256.602661133,6559.275
256.903656006,6515.4
257.204589844,6533.3
257.505523682,6529.875
257.80645752,6528.975
258.107391357,6542.925
258.408294678,6507.0
258.709228516,6457.275
259.010070801,6425.8
259.310943604,6396.625
259.611846924,6365.725
259.912658691,6300.6
260.213500977,6258.8
260.514343262,6197.975
260.815124512,6128.275
261.115936279,6103.45
261.416717529,6072.425
261.717468262,6031.375
262.018218994,6001.55
262.318969727,5980.175
262.619689941,5960.225
262.920410156,6021.775
263.221130371,6039.1
263.521789551,6055.575
263.822479248,6063.75
264.123138428,6137.6
264.42376709,6125.175
264.72442627,6109.875
265.025054932,6093.025
265.325622559,6096.1
265.626251221,6075.425
265.926818848,6032.625
266.227386475,5947.9
266.527954102,5926.15
266.828460693,5910.625
267.12902832,5817.55
267.429534912,5767.725
267.730010986,5689.05
268.030517578,5625.85
268.330993652,5587.35
268.631439209,5529.35
268.931915283,5500.6
269.232299805,5443.45
269.532745361,5425.275
269.8331604,5343.375
270.133544922,5321.5
270.433929443,5313.725
270.734313965,5274.9
271.034637451,5267.45
271.334991455,5226.925
271.635314941,5256.975
271.935638428,5250.425
272.235931396,5272.8
272.536254883,5323.0
272.836486816,5349.05
273.136749268,5404.475
273.437011719,5474.4
273.737213135,5541.6
274.037445068,5629.375
274.337677002,5677.825
274.6378479,5752.25
274.938049316,5858.275
275.238220215,5921.4
275.538360596,6030.25
275.838500977,6078.4
276.138641357,6197.525
276.438751221,6240.025
276.738830566,6312.9
277.03894043,6329.35
277.338989258,6442.675
277.639038086,6509.35
277.939056396,6538.8
278.239105225,6584.825
278.539093018,6666.525
278.839141846,6668.825
279.139129639,6756.425
279.439086914,6803.975
279.739044189,6848.425
280.039001465,6887.3
280.338928223,6922.55
280.63885498,6956.05
280.938781738,7005.625
281.238647461,7013.4
281.538513184,6982.8
281.838409424,7046.275
282.138244629,7080.65
282.438079834,7071.475
282.737945557,7077.925
283.037719727,7073.525
283.337524414,7104.9
283.637298584,7104.525
283.937072754,7106.3
284.236816406,7112.95
284.536560059,7104.7
284.836303711,7101.25
285.136016846,7142.225
285.43572998,7146.075
285.735412598,7080.05
286.035064697,7127.95
286.334747314,7125.4
286.634368896,7161.375
286.933990479,7091.325
287.233642578,7010.075
287.533203125,6997.875
287.832824707,6974.2
288.132385254,6862.65
288.431945801,6755.1
288.731506348,6631.05
289.031036377,6497.125
289.330566406,6369.55
289.630065918,6312.775
289.92956543,6326.075
290.229034424,6387.55
290.528503418,6536.025
290.827941895,6675.15
291.127380371,6794.075
291.42678833,6907.35
291.726226807,7035.575
292.025604248,7035.625
292.324981689,7070.2
292.624359131,7067.925
292.923736572,7076.375
293.223052979,7089.875
293.522369385,7078.725
293.821685791,7040.225
294.12097168,7017.6
294.420257568,7007.775
294.719543457,6949.275
295.018768311,6967.225
295.318023682,6886.7
295.617248535,6836.275
295.916442871,6758.05
296.215667725,6730.575
296.514862061,6607.45
296.813995361,6419.25
297.11315918,6231.55
297.412322998,6122.275
297.711425781,6095.775
298.010559082,6218.725
298.309631348,6414.725
298.608734131,6592.9
298.907806396,6743.45
299.206848145,6866.25
299.505889893,6944.9
299.804901123,7023.775
300.103912354,7100.3
300.402954102,7163.1
300.701904297,7212.425
301.00088501,7277.0
301.299835205,7324.65
301.5987854,7339.325
301.897735596,7434.375
302.196624756,7483.95
302.495513916,7526.875
302.794403076,7550.775
303.093292236,7616.225
303.392120361,7664.35
303.690979004,7721.375
303.989837646,7748.125
304.288604736,7807.125
304.587402344,7802.525
304.886199951,7862.3
305.184967041,7887.875
305.483734131,7903.425
305.782501221,7936.925
306.081176758,7950.0
306.37991333,7989.275
306.678619385,7984.95
306.977294922,8019.9
307.275970459,8021.5
307.574645996,8025.95
307.873260498,7989.4
308.171875,8025.25
308.470489502,8008.175
308.769104004,7936.9
309.067687988,7984.0
309.366241455,7979.35
309.664794922,7896.875
309.963348389,7917.975
310.261871338,7938.15
310.560394287,7922.95
310.858856201,7951.575
311.157348633,7984.75
311.455810547,8010.825
311.754272461,8003.9
312.052703857,8042.5
312.351135254,8070.975
312.649536133,8090.075
312.947937012,8050.55
313.246307373,8121.475
313.544647217,8116.95
313.843017578,8062.875
314.141387939,8008.75
314.439697266,8057.35
314.738006592,7982.4
315.036315918,7919.325
315.334564209,7857.6
315.6328125,7818.85
315.931091309,7763.175
316.229309082,7651.475
316.527526855,7541.975
316.825744629,7491.0
317.123901367,7411.225
317.422088623,7363.0
317.720245361,7354.5
318.0184021,7365.175
318.316497803,7418.125
318.614654541,7461.75
318.912750244,7535.6
319.21081543,7496.975
319.50894165,7549.75
319.806945801,7552.25
320.104980469,7551.075
320.403045654,7543.225
320.701049805,7510.275
320.999023438,7484.8
321.297027588,7445.075
321.595001221,7433.175
321.892913818,7417.85
322.190887451,7338.75
322.488830566,7291.4
322.786712646,7267.825
323.084625244,7199.125
323.382507324,7171.225
323.680358887,7098.1
323.978210449,7030.675
324.276062012,6995.9
324.573852539,6944.8
324.871643066,6883.825
325.169464111,6839.85
325.467224121,6781.725
325.764984131,6720.65
326.062744141,6657.5
326.360473633,6605.0
326.658203125,6535.9
326.955871582,6470.325
327.253570557,6410.175
327.551239014,6359.325
327.848907471,6308.0
328.146514893,6247.2
328.444152832,6190.55
328.741790771,6136.675
329.039367676,6112.575
329.336914062,6035.375
329.634521484,5988.625
329.932067871,5944.925
330.229553223,5879.425
330.527160645,5827.15
330.824615479,5775.175
331.12210083,5714.85
331.419586182,5610.4
331.717041016,5572.8
332.014465332,5485.775
332.311920166,5457.725
332.609313965,5407.75
332.906707764,5401.825
333.204101562,5386.25
333.501495361,5410.825
333.798828125,5460.675
334.096160889,5491.675
334.39352417,5545.425
334.690795898,5570.525
334.988098145,5604.675
335.285400391,5690.525
335.582641602,5689.225
335.879882812,5709.875
336.177124023,5730.45
336.474334717,5784.7
336.77154541,5774.15
337.068725586,5811.525
337.365905762,5808.8
337.66305542,5840.725
337.960205078,5851.55
338.257324219,5845.775
338.554443359,5846.025
338.8515625,5864.275
339.148590088,5863.65
339.445648193,5887.55
339.742736816,5843.575
340.039764404,5834.075
340.336761475,5804.1
340.63381958,5764.075
340.930755615,5715.5
341.227722168,5683.4
341.524688721,5600.75
341.821624756,5571.1
342.118560791,5582.15
342.415496826,5674.7
342.712402344,5790.225
343.009246826,5911.675
343.306121826,6010.475
343.602966309,6052.775
343.899810791,6130.85
344.196624756,6208.275
344.493438721,6220.975
344.79019165,6281.625
345.086975098,6313.2
345.383758545,6366.975
345.680480957,6337.725
345.977203369,6354.375
346.273956299,6414.1
346.570617676,6369.875
346.86730957,6406.45
347.163970947,6377.4
347.460601807,6425.325
347.757232666,6441.3
348.053894043,6423.275
348.350463867,6372.0
348.647064209,6345.65
348.943634033,6346.5
349.24017334,6345.125
349.536712646,6291.325
349.833251953,6307.975
350.129760742,6271.9
350.426208496,6256.125
350.722747803,6257.95
351.019195557,6250.7
351.315612793,6214.025
351.612060547,6158.625
351.908508301,6106.6
352.204864502,6069.15
352.501281738,6010.425
352.797637939,5965.275
353.093963623,5889.2
353.390319824,5855.575
353.686645508,5769.0
353.982940674,5698.1
354.27923584,5683.85
354.575531006,5621.525
354.871765137,5608.525
355.167999268,5595.65
355.464233398,5593.625
355.760437012,5602.475
356.056640625,5601.375
356.352813721,5620.125
356.648956299,5621.625
356.945129395,5632.65
357.241271973,5627.225
357.537384033,5633.1
357.833496094,5601.4
358.129577637,5590.725
358.425628662,5571.6
358.721679688,5550.175
359.017730713,5516.0
359.313720703,5455.625
359.609710693,5445.7
359.905761719,5405.6
360.201721191,5365.275
360.497650146,5303.2
360.793609619,5288.425
361.089538574,5210.825
361.385437012,5141.825
361.681365967,5102.8
361.977233887,5067.75
362.273071289,5015.1
362.568908691,4915.425
362.864746094,4815.4
363.160552979,4696.85
363.456359863,4542.175
363.752166748,4411.8
364.047912598,4313.725
364.343658447,4308.65
364.639434814,4317.4
364.935119629,4367.15
365.230834961,4424.825
365.526550293,4463.675
365.822174072,4470.675
366.117858887,4483.575
366.413482666,4521.25
366.709075928,4549.8
367.004730225,4464.25
367.300292969,4457.225
367.595855713,4478.85
367.891448975,4389.325
368.186981201,4296.375
368.482513428,4264.725
368.778015137,4268.675
369.073547363,4232.425
369.36895752,4250.4
369.664428711,4141.1
369.95993042,4043.85
370.255310059,3994.95
370.550720215,3975.675
370.846160889,3945.325
371.14151001,3909.0
371.436859131,3879.775
371.73223877,3880.225
372.027557373,3835.975
372.322875977,3779.075
372.618164062,3768.6
372.913482666,3733.675
373.208709717,3721.275
373.503967285,3651.475
373.799194336,3620.425
374.094421387,3611.25
374.389648438,3599.275
374.684844971,3582.55
374.979980469,3610.925
375.275146484,3641.4
375.570281982,3651.45
375.865386963,3652.875
376.160522461,3604.525
376.455596924,3606.875
376.750640869,3709.05
377.045715332,3702.575
377.340759277,3756.325
377.635772705,3794.9
377.93081665,3838.0
378.225769043,3893.5
378.520751953,3947.675
378.815734863,3910.85
379.110656738,4065.275
379.405548096,4210.95
379.700500488,4066.05
379.995391846,3881.975
380.290252686,3933.05
380.585083008,4034.475
380.879974365,4071.05
381.17477417,3985.425
381.469543457,3941.125
381.764404297,3912.975
382.059143066,3943.55
382.353912354,4018.15
382.648651123,4104.225
382.943389893,4095.325
383.238067627,3934.875
383.532775879,3941.5
383.827484131,3884.35
384.12210083,3887.95
384.416778564,3822.725
384.711425781,3741.325
385.006011963,3776.425
385.300628662,3758.9
385.595184326,3826.475
385.88973999,3922.525
386.184295654,4007.6
386.478820801,4087.2
386.77331543,4168.75
387.067840576,4272.775
387.362335205,4382.875
387.656768799,4417.725
387.951202393,4448.05
388.245635986,4520.925
388.540039062,4583.825
388.834472656,4632.175
389.128875732,4547.5
389.423187256,4344.575
389.717559814,4316.075
390.011871338,4391.125
390.306182861,4415.875
390.600463867,4441.125
390.894775391,4505.525
391.189025879,4524.825
391.48324585,4522.425
391.777526855,4575.875
392.071685791,4741.5
392.365875244,4867.15
392.660064697,4900.3
392.95425415,5223.425
393.248382568,5210.425
393.542510986,4774.125
393.836608887,4604.125
394.130706787,4619.575
394.424804688,4570.975
394.71887207,4671.8
395.012878418,4654.6
395.306915283,4546.225
395.600921631,4497.875
395.894927979,4447.1
396.188903809,4495.35
396.482879639,4523.975
396.776794434,4704.3
397.070739746,4669.45
397.364654541,4701.8
397.658538818,5044.55
397.952423096,5085.05
398.246307373,5045.1
398.540100098,5537.675
398.833953857,5412.075
399.127746582,4974.725
399.421508789,4973.925
399.715301514,4926.525
400.009063721,4838.875
400.30279541,4689.1
400.596496582,4625.7
400.890258789,4766.85
401.183929443,4845.675
401.47756958,4725.175
401.771240234,4524.95
402.064880371,4542.025
402.35848999,4589.7
402.652130127,4494.375
402.945678711,4560.45
403.239257812,4531.7
403.532775879,4455.85
403.82635498,4502.975
404.119842529,4423.0
404.413360596,4400.5
404.706848145,4452.35
405.000274658,4393.125
405.293762207,4460.775
405.587188721,4537.775
405.880584717,4355.15
406.17401123,4211.9
406.467407227,4014.75
406.760742188,4013.425
407.054107666,4070.325
407.347442627,3999.875
407.640716553,3988.575
407.934051514,4043.125
408.227325439,4093.2
408.520568848,4297.25
408.813842773,4367.175
409.107086182,4205.375
409.400238037,4135.475
409.693450928,4086.9
409.986633301,4198.425
410.279754639,4110.225
410.572875977,3836.0
410.86605835,3775.3
411.159118652,3783.225
411.452209473,3792.525
411.745330811,3658.775
412.038360596,3604.175
412.331390381,3627.925
412.624420166,3658.525
412.917388916,3588.675
413.210388184,3419.825
413.503387451,3377.075
413.796295166,3300.625
414.089233398,3132.45
414.382141113,3068.85
414.675048828,3042.675
414.967926025,3061.875
415.260803223,3034.55
415.55368042,3043.525
415.846466064,3024.875
416.139282227,3084.525
416.432098389,3199.8
416.724853516,3189.3
417.017608643,3136.3
417.31036377,3146.225
417.603088379,3285.95
417.895782471,3246.525
418.188476562,3230.075
418.481140137,3276.15
418.773803711,3317.9
419.066436768,3300.8
419.359039307,3369.8
419.651641846,3351.45
419.944244385,3382.3
420.236816406,3341.85
420.529327393,3536.925
420.821899414,3628.825
421.114379883,3521.95
421.406860352,3773.625
421.699371338,3975.8
421.991821289,3947.0
422.284240723,3753.05
422.576721191,3609.575
422.869110107,3523.825
423.161468506,3475.325
423.453857422,3505.825
423.74621582,3393.125
424.038543701,3252.3
424.330871582,3231.625
424.623168945,3166.85
424.915435791,3297.1
425.207702637,3248.125
425.499969482,3219.625
425.792205811,3148.9
426.084411621,2915.35
426.376617432,2992.85
426.668762207,3065.7
426.9609375,2954.675
427.253082275,3053.575
427.545196533,3451.6
427.837310791,3177.75
428.129425049,2913.675
428.421447754,3114.15
428.713531494,3107.275
429.005554199,3111.525
429.297576904,3125.875
429.589599609,3519.625
429.881561279,3806.5
430.173522949,3602.65
430.465484619,3564.325
430.757415771,3629.75
431.049316406,3416.025
431.341186523,3198.3
431.633117676,3103.95
431.924957275,2822.975
432.21673584,2728.5
432.508636475,2853.075
432.800415039,2893.425
433.092163086,2781.1
433.383972168,2772.225
433.675689697,3413.375
433.967437744,3877.4
434.259155273,2985.975
434.550872803,2709.55
434.842498779,2758.0
435.134185791,2874.675
435.425842285,2886.8
435.717437744,2793.425
436.009063721,2630.25
436.30065918,2760.175
436.592224121,3080.625
436.883758545,2893.0
437.175323486,2656.65
437.466827393,2630.125
437.758331299,2650.725
438.049804688,2672.2
438.341247559,2725.0
438.63269043,2783.9
438.924163818,2792.975
439.215515137,2753.35
439.50692749,2664.0
439.798309326,2661.3
440.089660645,2665.05
440.380981445,2592.2
440.672332764,2580.7
440.963623047,2844.325
441.254882812,3257.05
441.546173096,3422.8
441.837402344,3188.7
442.128631592,3018.675
442.41986084,2994.775
442.711029053,2880.425
443.002197266,2945.85
443.293365479,3108.45
443.584503174,3218.975
443.875610352,3211.4
444.166717529,2960.575
444.457794189,3034.55
444.748840332,3014.025
445.039916992,2961.475
445.330932617,3057.275
445.621948242,2894.0
445.912963867,2718.0
446.203918457,2939.475
446.494812012,3153.4
446.785827637,2954.7
447.076721191,2792.75
447.367584229,2775.825
447.658447266,2755.85
447.949371338,2805.75
448.24017334,2680.175
448.530975342,2625.275
448.821838379,2799.875
449.112579346,2852.325
449.40335083,2789.075
449.694152832,2829.825
449.984863281,2818.3
450.27557373,2750.0
450.56628418,2812.475
450.856933594,2838.875
451.147583008,2685.175
451.438262939,2593.8
451.728881836,2764.775
452.019470215,2866.575
452.310089111,2669.425
452.600646973,2706.85
452.891174316,2747.45
453.181732178,2584.6
453.472229004,2467.625
453.762695312,2567.525
454.053222656,2590.7
454.343658447,2476.7
454.634063721,2415.95
454.924530029,2576.075
455.214935303,2701.075
455.505279541,2772.35
455.795715332,2643.85
456.086029053,2457.1
456.376312256,2438.425
456.666687012,2474.475
456.956939697,2568.45
457.247192383,2567.625
457.537445068,2645.325
457.827728271,2816.075
458.117919922,2739.5
458.408081055,2660.75
458.698303223,2835.825
458.988433838,2764.825
459.278564453,2614.475
459.568725586,2866.825
459.858825684,2988.075
460.148864746,2682.025
460.438995361,2654.05
460.729034424,2701.375
461.019042969,2722.525
461.309082031,2893.475
461.599060059,2781.125
461.889007568,2369.15
462.179016113,2204.925
462.468933105,2412.525
462.75881958,2514.125
463.048736572,2278.475
463.338592529,2524.05
463.628448486,2867.65
463.918365479,2577.4
464.2081604,2743.575
464.497924805,2705.875
464.787780762,2818.925
465.077514648,3102.05
465.367218018,2749.725
465.657012939,2937.275
465.946685791,3308.55
466.236358643,2946.55
466.526092529,2466.0
466.815734863,2453.425
467.105316162,2388.9
467.394927979,2419.4
467.684570312,2295.525
467.974121094,2368.65
468.263671875,2464.175
468.553222656,2273.4
468.842773438,2169.25
469.132232666,2057.875
469.42175293,2098.25
469.711212158,2072.825
470.000640869,1951.725
470.290100098,2001.675
470.579498291,2044.375
470.868835449,2034.375
471.158294678,1998.975
471.447601318,1979.575
471.736907959,2043.4
472.026275635,2119.7
472.315551758,2102.55
472.604797363,2083.475
472.894104004,2208.225
473.183319092,2301.925
473.47253418,2298.4
473.761779785,2290.4
474.05090332,2227.5
474.340087891,2188.95
474.629241943,2132.825
474.918365479,2267.175
475.207427979,2539.1
475.496551514,2565.45
475.785614014,2311.35
476.074645996,2126.775
476.363708496,2219.25
476.652679443,2342.075
476.941650391,2185.0
477.230682373,2038.55
477.519622803,2036.45
477.808502197,2178.9
478.097412109,2420.975
478.386352539,2384.125
478.675201416,2127.475
478.964050293,2028.525
479.25289917,2209.825
479.541717529,2257.275
479.830474854,2112.825
480.11932373,2424.525
480.408050537,2606.625
480.696777344,2248.65
480.985534668,2123.575
481.274200439,2209.025
481.562866211,2443.6
481.851593018,2467.875
482.140197754,2403.975
482.428833008,2253.125
482.717468262,2060.6
483.006011963,2092.725
483.294586182,2210.525
483.5831604,2234.5
483.871673584,2108.425
484.16015625,2256.5
484.448699951,2463.375
484.7371521,2508.075
485.02557373,2516.775
485.314025879,2259.45
485.602416992,3510.65
485.890777588,12460.0
486.179199219,11103.3
486.467559814,2965.95
486.755859375,2161.45
487.044219971,2525.525
487.332519531,2698.1
487.620758057,2307.15
487.908966064,2069.9
488.197265625,1887.65
488.485473633,1787.85
488.773651123,1900.875
489.061859131,1893.875
489.350006104,1855.15
489.638122559,1781.7
489.926300049,1808.2
490.214355469,1753.35
490.502441406,1715.575
490.790527344,1662.125
491.078552246,1839.4
491.366546631,1833.225
491.654602051,1617.325
491.942565918,1686.725
492.230499268,1735.075
492.518493652,1691.1
492.806396484,1719.8
493.094268799,1647.15
493.382202148,1669.725
493.670074463,1788.1
493.957885742,1642.35
494.245727539,1641.275
494.533508301,1787.85
494.821289062,1686.3
495.109100342,1547.075
495.396850586,1502.475
495.684539795,1460.75
495.972290039,1664.575
496.25994873,1973.475
496.547607422,1971.9
496.835296631,1814.575
497.122894287,1507.575
497.410522461,1436.7
497.6980896,1438.35
497.985687256,1415.3
498.273223877,1508.425
498.560760498,1567.45
498.848266602,1602.825
499.135772705,1567.375
499.423217773,1598.725
499.710693359,1700.725
499.998138428,1653.4
500.285522461,1495.35
500.572937012,1418.85
500.860290527,1468.0
501.147644043,1563.35
501.434997559,1775.25
501.722290039,1635.075
502.00958252,1419.4
502.296875,1673.85
502.584106445,1655.35
502.871337891,1493.05
503.158599854,1571.8
503.445770264,1635.6
503.732910156,1619.2
504.020141602,1440.325
504.307220459,1429.575
504.594329834,1454.375
504.881469727,1391.2
505.168518066,1458.975
505.455535889,1526.5
505.742614746,1407.825
506.029632568,1354.05
506.316589355,1520.975
506.603637695,1606.325
506.890563965,1413.425
507.177459717,1281.1
507.464385986,1192.8
507.751312256,1400.6
508.038146973,1471.125
508.325012207,1350.2
508.611877441,1405.4
508.898681641,1410.325
509.185424805,1265.85
509.472259521,1233.0
509.759002686,1311.45
510.045715332,1332.2
510.332458496,1296.675
510.619140625,1342.175
510.905761719,1256.625
511.192504883,1257.275
511.479095459,1292.55
511.765686035,1245.325
512.052307129,1177.025
512.338928223,1123.225
512.625427246,1167.825
512.91204834,1230.0
513.198486328,1212.625
513.484985352,1178.725
513.77142334,1112.925
514.057922363,1154.275
514.344299316,1148.375
514.63079834,1119.05
514.917175293,1107.7
515.203552246,1022.6
515.489868164,995.8
515.776245117,1110.2
516.0625,1153.325
516.348815918,1068.3
516.635070801,1091.275
516.921325684,1144.175
517.207580566,1085.825
517.493774414,1002.6
517.779968262,1013.125
518.066101074,1049.5
518.352294922,1006.9
518.638366699,1009.425
518.924499512,1081.6
519.210632324,1151.775
519.496643066,1120.6
519.782714844,1022.65
520.068786621,1000.575
520.354736328,965.25
520.640686035,922.35
520.926757812,962.525
521.212646484,1038.725
521.498535156,1044.925
521.784484863,998.3
522.0703125,928.1
522.356262207,945.775
522.642089844,1026.7
522.927856445,1009.475
523.213684082,1005.25
523.499511719,1004.325
523.78527832,1032.375
524.070983887,1080.75
524.356750488,1068.075
524.64239502,1025.6
524.928039551,1015.25
525.213806152,1041.4
525.499389648,1025.525
525.784973145,1044.875
526.070617676,1093.95
526.356140137,1068.95
526.641723633,1070.75
526.927307129,1125.75
527.212768555,1131.95
527.498291016,1105.975
527.783752441,1110.775
528.069213867,1101.025
528.354675293,1114.875
528.640014648,1263.95
528.925476074,1336.7
529.21081543,1258.775
529.496154785,1236.775
529.781555176,1198.625
530.066833496,1229.8
530.352050781,1248.6
530.637390137,1231.15
530.922607422,1227.425
531.207824707,1225.0
531.493041992,1211.575
531.778198242,1278.275
532.063354492,1264.125
532.348571777,1203.2
532.633666992,1224.475
532.918762207,1297.675
533.203857422,1372.5
533.488891602,1407.8
533.773925781,1357.575
534.059020996,1323.975
534.343933105,1358.975
534.628967285,1332.05
534.91394043,1361.125
535.198852539,1364.575
535.483703613,1341.25
535.768676758,1281.675
536.053527832,1286.275
536.338317871,1248.925
536.62322998,1189.375
536.90802002,1173.925
537.192810059,1192.425
537.477539062,1266.4
537.762329102,1306.525
538.047058105,1342.05
538.331726074,1368.525
538.616455078,1366.125
538.901123047,1338.4
539.18572998,1374.6
539.470397949,1387.35
539.755004883,1375.575
540.039550781,1341.95
540.32409668,1294.975
540.608703613,1333.125
540.893188477,1434.425
541.17767334,1437.3
541.462158203,1454.65
541.746643066,1400.1
542.031066895,1437.8
542.315429688,1477.35
542.59979248,1471.775
542.884216309,1466.4
543.168579102,1447.4
543.452941895,1466.95
543.737243652,1499.925
544.021484375,1557.9
544.305725098,1542.725
544.590026855,1517.375
544.874267578,1541.6
545.158447266,1599.6
545.442626953,1523.625
545.726806641,1425.225
546.010925293,1454.725
546.29510498,1491.9
546.579162598,1475.475
546.863220215,1504.25
547.147277832,1591.725
547.431335449,1651.025
547.715332031,1713.475
547.999328613,1817.625
548.283325195,1821.65
548.567260742,1691.95
548.851135254,1666.725
549.135070801,1636.8
549.419006348,1555.2
549.702819824,1643.475
549.986755371,1702.075
550.270507812,1671.05
550.554321289,1715.075
550.83807373,1733.2
551.121826172,1681.2
551.405517578,1701.775
551.689331055,1807.1
551.973022461,2017.025
552.256652832,2081.975
552.540344238,1999.575
552.823974609,1980.25
553.107543945,1956.375
553.391174316,2017.025
553.674743652,2071.35
553.958251953,2076.425
554.241821289,2083.55
554.525268555,2023.025
554.808776855,2012.975
555.092285156,2209.5
555.375671387,2267.45
555.659057617,2279.7
555.942504883,2306.15
556.225891113,2325.525
556.509216309,2293.45
556.792541504,2215.55
557.075866699,2281.875
557.359130859,2321.95
557.64239502,2321.3
557.92565918,2399.85
558.208862305,2386.125
558.49206543,2315.95
558.77532959,2340.625
559.058410645,2384.025
559.341552734,2355.35
559.624694824,2427.25
559.907775879,2492.15
560.190856934,2601.55
560.473937988,2588.675
560.756896973,2620.975
561.039978027,2667.9
561.322937012,2619.4
561.605895996,2622.225
561.88885498,2562.725
562.171813965,2587.75
562.454650879,2574.325
562.737548828,2608.05
563.020446777,2677.35
563.303283691,2689.15
563.58605957,2728.95
563.868896484,2749.6
564.151672363,2778.775
564.434387207,2825.925
564.717163086,2805.4
564.99987793,2817.525
565.282531738,2889.4
565.565185547,2846.6
565.847839355,2850.175
566.130432129,2962.375
566.413085938,2934.2
566.695678711,2934.775
566.978149414,3058.925
567.260681152,3192.4
567.543273926,3271.025
567.825744629,3160.2
568.108154297,3197.675
568.390686035,3322.1
568.673095703,3441.2
568.955505371,3488.825
569.237854004,3529.95
569.520202637,3786.925
569.802490234,3987.9
570.084838867,3962.2
570.367126465,3801.325
570.649414062,3814.225
570.93170166,4154.15
571.213928223,4230.25
571.496154785,3975.375
571.778381348,4201.0
572.06048584,4457.3
572.342590332,4034.275
572.624755859,3695.85
572.906860352,3754.7
573.188903809,4408.25
573.470947266,4653.45
573.752990723,4421.25
574.03503418,4511.575
574.317016602,4892.875
574.598937988,4683.375
574.88092041,4552.05
575.162841797,4747.5
575.444763184,4396.7
575.726623535,4137.325
576.008483887,4174.325
576.290344238,4552.35
576.572143555,4769.25
576.853881836,4819.525
577.135681152,4734.65
577.417419434,4768.225
577.699157715,5618.8
577.980895996,5789.3
578.262573242,5175.85
578.544128418,4688.95
578.825866699,4627.2
579.107421875,4338.7
579.388977051,4506.025
579.670593262,4900.55
579.952148438,4741.85
580.233642578,4836.825
580.515197754,4941.025
580.796691895,4651.625
581.078125,4814.775
581.359619141,6294.725
581.640991211,6353.975
581.922363281,5496.475
582.203796387,5564.125
582.485107422,5198.3
582.766418457,4818.875
583.047790527,4660.95
583.329040527,4560.85
583.610290527,4440.775
583.891540527,4548.425
584.172790527,4847.8
584.453918457,4874.075
584.735107422,4928.35
585.016235352,5363.8
585.297363281,5320.25
585.578552246,5137.175
585.859619141,5069.95
586.140625,4859.05
586.421630859,4728.05
586.702697754,4766.425
586.983642578,4997.525
587.264648438,5145.8
587.545654297,5104.2
587.826477051,5046.5
588.107421875,4851.9
588.388305664,4899.7
588.669189453,4990.875
588.950012207,4839.55
589.230834961,4756.025
589.511657715,4836.6
589.792358398,4923.4
590.073120117,4952.125
590.353881836,4886.4
590.63458252,4930.7
590.915283203,4887.825
591.195922852,4886.4
591.4765625,4927.725
591.757202148,4982.725
592.037780762,4946.7
592.31829834,4950.45
592.598937988,5156.975
592.879394531,5335.825
593.159912109,5249.275
593.440429688,5170.5
593.720825195,5149.575
594.001281738,5127.125
594.281677246,5057.05
594.562072754,5061.85
594.842407227,5150.475
595.122802734,5210.95
595.403137207,5186.925
595.683410645,5165.425
595.963623047,5162.9
596.243896484,5103.9
596.524169922,5118.3
596.804382324,5126.75
597.084533691,5156.8
597.364746094,5204.1
597.644836426,5196.925
597.924987793,5187.55
598.205078125,5154.5
598.485107422,5197.225
598.765197754,5313.4
599.045227051,5374.925
599.325195312,5245.075
599.605224609,5212.325
599.885192871,5265.9
600.165100098,5303.0
600.445007324,5233.55
600.724914551,5248.825
601.004760742,5275.05
601.284667969,5285.8
601.56451416,5238.225
601.844238281,5244.95
602.124084473,5271.7
602.403808594,5289.225
602.683532715,5306.025
602.963256836,5287.7
603.242919922,5330.2
603.522583008,5377.45
603.802246094,5348.425
604.081848145,5306.9
604.36138916,5292.85
604.641052246,5305.85
604.920532227,5286.8
605.200073242,5317.825
605.479614258,5350.15
605.759094238,5360.725
606.038574219,5383.375
606.317932129,5294.875
606.597412109,5299.975
606.87677002,5326.375
607.15612793,5349.45
607.435546875,5396.9
607.714782715,5371.75
607.99407959,5333.2
608.273376465,5329.5
608.552612305,5342.5
608.831848145,5370.975
609.111083984,5357.85
609.390258789,5303.975
609.669433594,5324.275
609.948608398,5370.875
610.227722168,5355.35
610.506713867,5300.6
610.785888672,5342.575
611.064880371,5305.85
611.34387207,5321.675
611.622924805,5337.75
611.901916504,5345.025
612.180847168,5293.25
612.459777832,5260.075
612.738647461,5309.3
613.01751709,5258.25
613.296447754,5209.825
613.575317383,5178.825
613.854064941,5123.225
614.132873535,5037.05
614.411621094,5001.5
614.690368652,4962.95
614.969177246,4885.375
615.247802734,4832.0
615.526489258,4821.425
615.805175781,4708.35
616.08380127,4585.825
616.362365723,4503.125
616.640991211,4465.375
616.919555664,4409.6
617.198059082,4520.3
617.4765625,4768.525
617.755126953,4921.225
618.033569336,4957.075
618.311950684,4924.375
618.590454102,4934.825
618.868774414,4917.825
619.147155762,4909.35
619.425598145,4914.7
619.703857422,4923.375
619.982177734,4914.425
620.260498047,4910.975
620.538757324,4888.725
620.816955566,4859.875
621.095214844,4822.225
621.373413086,4838.15
621.651550293,4895.275
621.929748535,4925.575
622.207824707,4916.925
622.485900879,4926.45
622.764038086,4927.675
623.042053223,4958.825
623.320007324,4984.925
623.598083496,4971.05
623.876037598,4924.525
624.153991699,4958.675
624.432006836,4994.5
624.709838867,4995.0
624.987731934,4973.35
625.265563965,4979.125
625.543395996,4974.125
625.821228027,5038.1
626.098999023,5020.025
626.376831055,5067.975
626.654541016,5063.3
626.932250977,5119.9
627.209960938,5160.6
627.487670898,5166.875
627.765319824,5185.2
628.04296875,5191.0
628.320495605,5218.775
628.598083496,5194.725
628.875671387,5221.75
629.153259277,5252.85
629.430725098,5308.425
629.708251953,5294.875
629.985656738,5300.3
630.263122559,5345.3
630.540588379,5370.1
630.817932129,5399.975
631.095275879,5410.525
631.372680664,5430.675
631.649963379,5501.975
631.927246094,5525.8
632.204589844,5534.5
632.481811523,5610.15
632.759033203,5681.4
633.036254883,5684.625
633.313415527,5768.575
633.590576172,5807.475
633.867736816,5915.3
634.144836426,5971.15
634.421875,5998.5
634.698913574,6055.175
634.976013184,6095.1
635.252990723,6154.625
635.529968262,6198.7
635.807006836,6257.925
636.08392334,6230.9
636.360839844,6166.425
636.637756348,6081.775
636.914611816,6047.625
637.191467285,6021.325
637.468261719,6097.525
637.745056152,6041.85
638.021789551,6076.575
638.298583984,6080.175
638.575317383,6127.925
638.851989746,6123.15
639.12878418,6143.725
639.405395508,6088.975
639.682006836,6122.925
639.958618164,6124.425
640.235229492,6098.825
640.511779785,6155.475
640.788330078,6120.175
641.064880371,6120.8
641.341308594,6113.875
641.617797852,6076.625
641.894226074,6087.875
642.170654297,6118.625
642.44708252,6106.025
642.723388672,6110.3
642.999755859,6090.275
643.276123047,6100.25
643.552429199,6059.35
643.828674316,6070.925
644.104919434,6070.65
644.381164551,6054.2
644.657348633,6058.075
644.933532715,6028.725
645.209716797,6028.7
645.485839844,6021.3
645.761901855,6011.875
646.038024902,6016.8
646.314086914,6076.65
646.590087891,6010.15
646.866149902,6034.8
647.142150879,5974.625
647.41809082,5968.25
647.694030762,5976.0
647.969970703,5955.125
648.245788574,5974.1
648.521728516,5949.55
648.797546387,5943.625
649.073303223,5948.8
649.349182129,5934.625
649.624938965,5950.05
649.900634766,5927.7
650.176391602,5914.55
650.452087402,5890.7
650.727783203,5897.7
651.003479004,5889.525
651.279052734,5868.45
651.554626465,5864.325
651.83026123,5869.25
652.105773926,5885.3
652.381286621,5853.2
652.656860352,5830.475
652.932312012,5855.85
653.207763672,5839.075
653.483215332,5867.9
653.758605957,5848.75
654.033935547,5854.4
654.309326172,5853.9
654.584716797,5867.5
654.859985352,5825.3
655.135253906,5868.7
655.410583496,5841.275
655.685791016,6736.225
655.9609375,10559.1
656.236206055,10303.775
656.511291504,6803.8
656.786437988,5995.8
657.061645508,5884.075
657.336669922,5842.65
657.611694336,5873.125
657.886779785,5879.375
658.161804199,5913.0
658.436828613,5848.375
658.711791992,5863.725
658.986755371,5872.65
659.261657715,5868.325
659.536621094,5883.475
659.811401367,5903.95
660.086303711,5899.175
660.36114502,5882.3
660.635864258,5867.0
660.910644531,5911.25
661.185424805,5896.2
661.460205078,5911.525
661.734863281,5901.125
662.009521484,5908.85
662.284179688,5897.75
662.558776855,5920.375
662.833435059,5945.3
663.108032227,5939.05
663.382568359,5905.1
663.657043457,5957.225
663.93157959,5954.9
664.206054688,5942.55
664.48046875,5966.3
664.755004883,5987.85
665.02935791,6006.6
665.303710938,5987.65
665.578125,6008.55
665.852416992,5997.45
666.126708984,5969.05
666.401062012,5992.675
666.675292969,6033.4
666.949462891,6024.375
667.223754883,6013.95
667.497924805,6034.975
667.772094727,6026.725
668.046264648,5983.75
668.3203125,6059.525
668.594421387,6065.85
668.868469238,6059.85
669.14251709,6048.7
669.416503906,6057.575
669.690551758,6068.575
669.964477539,6080.7
670.23840332,6071.1
670.512329102,6050.675
670.786254883,6011.7
671.060058594,6083.3
671.333984375,6071.65
671.607788086,6086.3
671.881530762,6061.5
672.155334473,6117.85
672.429077148,6105.525
672.702758789,6122.65
672.97644043,6066.925
673.25012207,6082.225
673.523742676,6056.725
673.797302246,6085.5
674.070922852,6110.95
674.344482422,6096.85
674.618041992,6077.025
674.891601562,6072.2
675.165100098,6088.325
675.438476562,6061.775
675.711975098,6113.725
675.985412598,6057.15
676.258789062,6058.925
676.532165527,6061.4
676.805480957,6065.55
677.078796387,6094.3
677.352111816,6088.425
677.625366211,6047.55
677.898620605,6051.5
678.171875,6070.5
678.445007324,6046.325
678.718200684,6077.4
678.991394043,6082.675
679.264404297,6052.7
679.537536621,6091.725
679.81060791,6076.575
680.083679199,6055.475
680.356689453,6079.175
680.629699707,6058.925
680.902648926,6030.4
681.175598145,6070.225
681.448547363,6096.3
681.721435547,6044.675
681.99420166,6034.575
682.267150879,6011.65
682.539916992,6073.425
682.812744141,6015.45
683.085510254,5997.225
683.358215332,6002.125
683.63092041,5980.95
683.903625488,5998.5
684.176330566,5968.575
684.448913574,5952.825
684.721557617,5932.35
684.99420166,5968.775
685.266662598,5963.425
685.539245605,5941.975
685.811767578,5967.6
686.084289551,5992.375
686.356689453,5990.2
686.629150391,6009.75
686.901550293,6013.375
687.17401123,5992.05
687.446350098,6010.875
687.718688965,6018.075
687.990966797,6033.15
688.263305664,6032.6
688.535522461,5979.05
688.807739258,5975.925
689.079956055,6015.325
689.352172852,6018.65
689.624328613,6006.1
689.896484375,6010.525
690.168518066,5995.3
690.440612793,6006.075
690.71270752,5997.9
690.984741211,6005.8
691.256713867,6012.7
691.528747559,6005.925
691.800720215,6009.775
692.072631836,5983.85
692.344543457,6016.475
692.616394043,6014.75
692.888244629,6004.05
693.160095215,6047.45
693.431945801,6034.725
693.703674316,5999.3
693.975463867,5996.45
694.247131348,6019.975
694.518859863,5986.325
694.790588379,6011.275
695.062255859,5997.725
695.33380127,5997.0
695.60546875,5952.425
695.87701416,5979.85
696.148498535,5989.15
696.42010498,5997.825
696.691589355,6011.125
696.96307373,6014.25
697.234558105,6032.625
697.50592041,6030.625
697.777282715,6025.425
698.048706055,5985.0
698.320068359,6012.95
698.591308594,6011.575
698.862670898,5977.05
699.133972168,6009.975
699.405151367,5990.175
699.676391602,5995.5
699.947570801,5984.35
700.21875,5989.25
700.489868164,5982.275
700.761047363,5968.075
701.032104492,5986.8
701.303100586,5928.475
701.57421875,5967.05
701.845214844,5940.025
702.116149902,5963.7
702.387207031,5966.6
702.65814209,5964.725
702.928955078,5962.7
703.199951172,5936.35
703.47076416,5909.1
703.741577148,5915.525
704.012451172,5928.275
704.28314209,5939.825
704.553955078,5916.15
704.824707031,5937.4
705.095397949,5941.825
705.366027832,5941.55
705.63671875,5951.1
705.907348633,5912.925
706.17791748,5907.025
706.448486328,5898.275
706.719055176,5926.825
706.989562988,5918.1
707.260131836,5921.1
707.530517578,5935.325
707.800964355,5932.425
708.071411133,5899.225
708.341796875,5857.65
708.612182617,5871.1
708.882446289,5832.9
709.152893066,5858.3
709.423156738,5854.375
709.693359375,5844.875
709.963623047,5840.075
710.233825684,5855.475
710.503967285,5813.975
710.774169922,5828.575
711.044311523,5819.8
711.31439209,5783.35
711.584533691,5809.35
711.854553223,5801.25
712.124572754,5803.975
712.39465332,5766.175
712.664611816,5797.7
712.934509277,5826.275
713.204467773,5758.675
713.474365234,5798.9
713.74420166,5801.575
714.014099121,5787.125
714.283874512,5775.925
714.553710938,5783.975
714.823486328,5773.025
715.093200684,5753.25
715.362915039,5778.675
715.632629395,5746.875
715.902282715,5713.875
716.171875,5712.9
716.441589355,5702.1
716.711181641,5681.1
716.980712891,5719.425
717.250244141,5702.325
717.519775391,5705.925
717.78918457,5685.6
718.058654785,5718.975
718.328125,5740.225
718.597473145,5695.8
718.866882324,5682.55
719.136230469,5693.6
719.405578613,5700.25
719.674865723,5706.15
719.944152832,5682.8
720.213439941,5638.275
720.48260498,5658.45
720.75177002,5657.9
721.020996094,5658.425
721.290100098,5644.2
721.559204102,5636.4
721.828308105,5643.925
722.097351074,5642.875
722.366455078,5627.975
722.635437012,5601.275
722.904418945,5584.925
723.173400879,5608.775
723.442321777,5608.325
723.711181641,5592.125
723.980102539,5598.1
724.248962402,5610.8
724.51776123,5584.65
724.786560059,5593.875
725.055358887,5586.125
725.324035645,5561.0
725.592834473,5568.9
725.86151123,5529.1
726.130187988,5536.625
726.398803711,5516.0
726.667419434,5516.95
726.935974121,5541.2
727.204528809,5476.3
727.473083496,5490.55
727.741638184,5477.0
728.010070801,5444.225
728.278564453,5441.225
728.546936035,5454.7
728.815368652,5408.05
729.08380127,5376.4
729.352111816,5313.15
729.620361328,5266.5
729.88873291,5316.275
730.156982422,5313.025
730.425231934,5338.775
730.693481445,5332.675
730.961669922,5369.575
731.229797363,5368.9
731.49798584,5383.275
731.766113281,5414.325
732.034118652,5435.625
732.302246094,5462.05
732.570251465,5498.5
732.838256836,5505.975
733.106262207,5538.7
733.374145508,5545.7
733.642089844,5586.0
733.909973145,5613.875
734.177856445,5636.825
734.445678711,5701.2
734.713562012,5768.725
734.981323242,5758.325
735.249084473,5810.25
735.516845703,5872.1
735.784545898,5917.625
736.052185059,5953.525
736.319885254,5994.875
736.587524414,6035.8
736.855102539,6061.95
737.122619629,6159.025
737.390197754,6154.4
737.657714844,6223.2
737.925170898,6234.775
738.192749023,6312.425
738.460144043,6338.375
738.727539062,6370.5
738.994995117,6432.8
739.262329102,6477.95
739.529663086,6562.625
739.79699707,6563.725
740.06427002,6586.775
740.331481934,6649.65
740.598754883,6675.05
740.865905762,6706.45
741.133056641,6768.25
741.40032959,6780.875
741.667358398,6818.9
741.934448242,6840.575
742.201599121,6879.025
742.468566895,6931.225
742.735534668,6975.425
743.002563477,6981.7
743.26953125,6971.7
743.536437988,7039.5
743.803405762,7075.55
744.0703125,7068.575
744.337097168,7120.075
744.604003906,7089.075
744.870727539,7107.125
745.137512207,7130.075
745.40423584,7157.075
745.670959473,7130.825
745.93762207,7167.225
746.204284668,7145.175
746.470947266,7184.725
746.737548828,7139.775
747.004089355,7200.5
747.270751953,7202.025
747.53717041,7194.8
747.803710938,7168.675
748.070251465,7152.8
748.336608887,7169.475
748.603027344,7132.3
748.869445801,7147.025
749.135803223,7162.775
749.402099609,7190.225
749.668457031,7153.25
749.934753418,7119.425
750.20098877,7119.025
750.467224121,7153.825
750.733459473,7101.75
750.999572754,7094.5
751.26574707,7047.55
751.531860352,7075.85
751.797912598,7044.9
752.064025879,7006.35
752.330078125,7036.1
752.596069336,7029.8
752.862060547,6976.125
753.127990723,6979.45
753.393920898,6950.625
753.659912109,6942.925
753.925720215,6979.675
754.19152832,6955.375
754.457397461,6908.625
754.723144531,6879.925
754.988952637,6861.3
755.254699707,6887.325
755.520385742,6898.975
755.786071777,6903.2
756.051696777,6864.25
756.317382812,6835.175
756.582946777,6845.725
756.848510742,6842.025
757.114074707,6795.625
757.379577637,6798.95
757.645080566,6826.6
757.910583496,6809.7
758.175964355,6767.75
758.441345215,6782.55
758.706848145,6663.675
758.972106934,6672.95
759.237426758,6685.075
759.502807617,6696.4
759.768005371,6695.575
760.03326416,6673.55
760.298522949,6631.35
760.563659668,6654.5
760.828857422,6643.425
761.093994141,6657.35
761.359130859,6633.8
761.624206543,6610.3
761.889282227,6571.975
762.15423584,6566.75
762.419250488,6552.725
762.684265137,6526.175
762.949157715,6513.45
763.214050293,6524.375
763.479003906,6513.475
763.743835449,6504.475
764.008666992,6444.2
764.2734375,6456.9
764.538208008,6496.725
764.802978516,6522.5
765.067687988,6489.325
765.332397461,6483.775
765.597045898,6451.525
765.861694336,6454.325
766.126342773,6432.2
766.390930176,6424.475
766.655395508,6397.025
766.920043945,6391.35
767.184509277,6380.5
767.448974609,6365.075
767.713439941,6384.875
767.977783203,6331.45
768.2421875,6348.675
768.506591797,6337.55
768.770874023,6397.1
769.03515625,6361.5
769.299499512,6345.3
769.563720703,6356.475
769.827941895,6318.675
770.092163086,6329.975
770.356323242,6298.55
770.620483398,6318.15
770.88458252,6328.575
771.148681641,6334.55
771.412719727,6328.175
771.676757812,6337.1
771.940734863,6292.775
772.204711914,6292.2
772.468688965,6260.15
772.73260498,6274.5
772.996459961,6278.525
773.260314941,5588.3
773.524169922,755.975
773.787963867,141.8
774.051696777,122.55
774.315551758,123.075
774.579223633,123.1
774.842895508,120.975
775.106567383,122.85
775.370239258,120.075
775.633789062,125.075
775.897399902,126.275
776.160949707,119.375
776.424499512,122.625
776.687988281,125.7
776.951477051,128.35
777.214904785,123.525
777.47833252,125.175
