191.299911499,99.95
191.603515625,104.0
191.907119751,98.15
192.210693359,105.8
192.514251709,98.25
192.817810059,102.375
193.121368408,102.375
193.42489624,104.225
193.728408813,98.325
194.031936646,98.125
194.33543396,92.55
194.638916016,110.575
194.94241333,96.575
195.245880127,97.375
195.549331665,98.7
195.852767944,99.525
196.156204224,186.575
196.459625244,179.4
196.763015747,184.2
197.066436768,189.325
197.369812012,183.75
197.673187256,189.325
197.9765625,179.15
198.279922485,183.85
198.583251953,178.975
198.886581421,185.25
199.18989563,193.35
199.493209839,189.825
199.79649353,175.275
200.09979248,193.175
200.403076172,184.9
200.706314087,186.05
201.009567261,185.225
201.312820435,186.05
201.616027832,178.05
201.919235229,175.925
202.222457886,179.575
202.525634766,180.6
202.828826904,175.75
203.132003784,175.9
203.435150146,177.175
203.738296509,174.7
204.041412354,175.7
204.344558716,182.325
204.647659302,180.325
204.950759888,184.45
205.253845215,178.95
205.556930542,177.75
205.859985352,179.7
206.163024902,179.4
206.466079712,177.075
206.769104004,192.875
207.072113037,182.425
207.375137329,176.175
207.678131104,179.6
207.981109619,184.95
208.284088135,177.0
208.587036133,183.25
208.889984131,183.675
209.19291687,187.6
209.495849609,186.325
209.798751831,182.625
210.101654053,183.375
210.404556274,184.55
210.707427979,184.7
211.010269165,192.35
211.31312561,192.375
211.615982056,192.75
211.918807983,193.275
212.221618652,188.325
212.524429321,186.9
212.827224731,193.5
213.130004883,192.725
213.432769775,193.975
213.735534668,192.875
214.038269043,198.45
214.341003418,200.275
214.643737793,200.425
214.946456909,202.625
215.249145508,204.2
215.551834106,205.825
215.854507446,210.15
216.157165527,201.075
216.45980835,207.05
216.762451172,209.025
217.065078735,210.725
217.36769104,211.875
217.670303345,214.375
217.972885132,218.075
218.275466919,220.0
218.578048706,215.725
218.880599976,225.95
219.183120728,224.2
219.485656738,230.825
219.788192749,237.0
220.090682983,248.075
220.393188477,269.475
220.695663452,299.725
220.998138428,317.95
221.300582886,357.4
221.603042603,388.075
221.905487061,442.525
222.207901001,492.1
222.510299683,561.475
222.812728882,628.875
223.115097046,716.275
223.41746521,796.925
223.719848633,879.0
224.022171021,974.675
224.324508667,1070.65
224.626846313,1182.35
224.929168701,1279.875
225.231460571,1395.85
225.533737183,1498.975
225.836013794,1595.75
226.138290405,1705.6
226.440536499,1802.35
226.742767334,1909.975
227.044998169,1996.2
227.347213745,2104.975
227.649429321,2177.575
227.951629639,2261.175
228.253799438,2343.75
228.555953979,2418.325
228.858123779,2488.45
229.160263062,2543.55
229.462371826,2613.05
229.764511108,2663.425
230.066619873,2718.7
230.36869812,2791.925
230.670776367,2832.95
230.972854614,2906.375
231.274902344,2978.55
231.576950073,3033.05
231.878967285,3065.4
232.180999756,3156.975
232.48298645,3217.575
232.784988403,3283.7
233.086975098,3360.125
233.388946533,3409.325
233.69090271,3481.3
233.992858887,3543.725
234.294769287,3591.2
234.596694946,3638.225
234.898605347,3724.475
235.200500488,3738.6
235.502380371,3777.775
235.804244995,3823.4
236.106109619,3844.175
236.407958984,3888.725
236.709777832,3940.9
237.011581421,3970.725
237.313400269,3989.375
237.615203857,4013.325
237.916976929,4047.575
238.21875,4058.1
238.520507812,4116.275
238.822250366,4129.525
239.12399292,4132.175
239.425704956,4185.95
239.727401733,4197.9
240.02911377,4218.95
240.330780029,4231.8
240.632446289,4269.6
240.93409729,4281.475
241.23576355,4321.775
241.537384033,4353.1
241.839004517,4378.25
242.140594482,4405.65
242.442199707,4471.675
242.743774414,4502.275
243.045333862,4550.7
243.346923828,4543.45
243.648452759,4590.05
243.949966431,4606.7
244.251495361,4661.425
244.552993774,4670.0
244.854492188,4683.475
245.155975342,4713.5
245.457443237,4736.45
245.758880615,4775.025
246.060333252,4761.025
246.36177063,4766.575
246.66317749,4796.575
246.964569092,4789.0
247.265945435,4801.65
247.567337036,4812.225
247.86869812,4856.675
248.170059204,4878.9
248.471389771,4884.225
248.772705078,4961.925
249.074035645,4991.625
249.375335693,5033.175
249.676620483,5082.3
249.977890015,5129.375
250.279159546,5210.625
250.58039856,5286.15
250.881637573,5306.125
251.182876587,5403.9
251.484069824,5466.325
251.785263062,5548.025
252.086456299,5686.55
252.387619019,5715.85
252.688781738,5760.075
252.989929199,5873.125
253.291061401,5935.95
253.592178345,6042.375
253.893280029,6095.675
254.194366455,6198.05
254.49546814,6219.725
254.796524048,6254.0
255.097579956,6340.2
255.398620605,6344.0
255.699645996,6410.975
256.000640869,6439.15
256.30166626,6441.275
256.602661133,6508.35
256.903656006,6475.55
257.204589844,6515.2
257.505523682,6478.95
257.80645752,6519.975
258.107391357,6485.075
258.408294678,6476.65
258.709228516,6421.95
259.010070801,6393.125
259.310943604,6387.2
259.611846924,6334.225
259.912658691,6278.85
260.213500977,6244.05
260.514343262,6163.7
260.815124512,6107.65
261.115936279,6071.95
261.416717529,6044.425
261.717468262,6012.35
262.018218994,5929.025
262.318969727,5926.075
262.619689941,5961.05
262.920410156,5977.475
263.221130371,5998.625
263.521789551,6018.85
263.822479248,6052.475
264.123138428,6098.45
264.42376709,6096.425
264.72442627,6051.225
265.025054932,6056.95
265.325622559,6041.125
265.626251221,6048.0
265.926818848,6009.1
266.227386475,5933.925
266.527954102,5876.575
266.828460693,5873.1
267.12902832,5773.725
267.429534912,5718.6
267.730010986,5665.85
268.030517578,5616.475
268.330993652,5571.2
268.631439209,5497.275
268.931915283,5458.85
269.232299805,5421.4
269.532745361,5390.75
269.8331604,5314.35
270.133544922,5291.25
270.433929443,5268.95
270.734313965,5231.975
271.034637451,5254.675
271.334991455,5214.2
271.635314941,5225.85
271.935638428,5229.85
272.235931396,5261.975
272.536254883,5300.8
272.836486816,5339.8
273.136749268,5374.675
273.437011719,5444.75
273.737213135,5519.75
274.037445068,5591.175
274.337677002,5624.9
274.6378479,5720.9
274.938049316,5828.15
275.238220215,5870.475
275.538360596,5977.075
275.838500977,6054.9
276.138641357,6168.325
276.438751221,6188.85
276.738830566,6270.15
277.03894043,6309.5
277.338989258,6425.975
277.639038086,6486.825
277.939056396,6509.15
278.239105225,6546.025
278.539093018,6615.625
278.839141846,6653.475
279.139129639,6702.45
279.439086914,6760.85
279.739044189,6795.55
280.039001465,6859.1
280.338928223,6892.35
280.63885498,6940.6
280.938781738,6969.4
281.238647461,6976.6
281.538513184,6959.575
281.838409424,7010.475
282.138244629,7050.325
282.438079834,7032.2
282.737945557,7067.2
283.037719727,7056.625
283.337524414,7068.5
283.637298584,7073.875
283.937072754,7069.575
284.236816406,7084.675
284.536560059,7033.9
284.836303711,7059.7
285.136016846,7114.7
285.43572998,7104.075
285.735412598,7079.625
286.035064697,7099.375
286.334747314,7117.375
286.634368896,7073.6
286.933990479,7083.8
287.233642578,6997.25
287.533203125,6975.15
287.832824707,6940.05
288.132385254,6837.125
288.431945801,6722.575
288.731506348,6593.775
289.031036377,6460.025
289.330566406,6345.825
289.630065918,6332.0
289.92956543,6297.8
290.229034424,6368.875
290.528503418,6505.65
290.827941895,6660.575
291.127380371,6786.375
291.42678833,6872.325
291.726226807,6983.425
292.025604248,7007.025
292.324981689,7018.875
292.624359131,7042.975
292.923736572,7080.75
293.223052979,7057.725
293.522369385,7052.475
293.821685791,7007.675
294.12097168,6989.05
294.420257568,6938.6
294.719543457,6944.875
295.018768311,6934.525
295.318023682,6859.375
295.617248535,6829.0
295.916442871,6752.95
296.215667725,6710.125
296.514862061,6581.775
296.813995361,6392.55
297.11315918,6225.95
297.412322998,6084.775
297.711425781,6095.35
298.010559082,6212.675
298.309631348,6371.25
298.608734131,6561.9
298.907806396,6729.85
299.206848145,6856.15
299.505889893,6906.375
299.804901123,7004.8
300.103912354,7053.2
300.402954102,7119.275
300.701904297,7168.325
301.00088501,7222.975
301.299835205,7321.45
301.5987854,7305.825
301.897735596,7404.925
302.196624756,7440.075
302.495513916,7520.925
302.794403076,7511.4
303.093292236,7582.875
303.392120361,7632.75
303.690979004,7682.625
303.989837646,7735.25
304.288604736,7792.75
304.587402344,7783.575
304.886199951,7832.575
305.184967041,7853.55
305.483734131,7909.225
305.782501221,7914.05
306.081176758,7910.825
306.37991333,7938.35
306.678619385,7944.4
306.977294922,7976.1
307.275970459,7992.125
307.574645996,8023.125
307.873260498,7993.275
308.171875,8008.7
308.470489502,8001.85
308.769104004,7938.825
309.067687988,7941.0
309.366241455,7908.225
309.664794922,7883.0
309.963348389,7933.475
310.261871338,7906.475
310.560394287,7896.075
310.858856201,7918.3
311.157348633,7976.85
311.455810547,7947.475
311.754272461,7972.55
312.052703857,8029.25
312.351135254,8045.475
312.649536133,8056.575
312.947937012,8032.925
313.246307373,8079.05
313.544647217,8063.275
313.843017578,8037.925
314.141387939,7971.975
314.439697266,8040.775
314.738006592,7963.925
315.036315918,7898.625
315.334564209,7829.45
315.6328125,7761.8
315.931091309,7740.175
316.229309082,7640.425
316.527526855,7495.625
316.825744629,7474.5
317.123901367,7384.225
317.422088623,7333.375
317.720245361,7363.775
318.0184021,7346.25
318.316497803,7395.65
318.614654541,7432.2
318.912750244,7479.4
319.21081543,7474.975
319.50894165,7526.275
319.806945801,7534.875
320.104980469,7509.1
320.403045654,7509.4
320.701049805,7488.575
320.999023438,7490.3
321.297027588,7431.0
321.595001221,7425.65
321.892913818,7408.925
322.190887451,7313.975
322.488830566,7285.8
322.786712646,7225.575
323.084625244,7164.525
323.382507324,7151.925
323.680358887,7044.8
323.978210449,7012.05
324.276062012,6949.125
324.573852539,6909.725
324.871643066,6860.575
325.169464111,6837.525
325.467224121,6748.4
325.764984131,6690.525
326.062744141,6631.775
326.360473633,6564.425
326.658203125,6533.025
326.955871582,6461.625
327.253570557,6383.6
327.551239014,6334.35
327.848907471,6269.65
328.146514893,6223.225
328.444152832,6142.625
328.741790771,6138.625
329.039367676,6060.95
329.336914062,6021.25
329.634521484,5968.4
329.932067871,5939.325
330.229553223,5839.975
330.527160645,5837.775
330.824615479,5767.3
331.12210083,5689.475
331.419586182,5594.375
331.717041016,5558.35
332.014465332,5464.325
332.311920166,5443.8
332.609313965,5385.05
332.906707764,5386.675
333.204101562,5401.45
333.501495361,5402.15
333.798828125,5439.475
334.096160889,5467.375
334.39352417,5518.925
334.690795898,5549.475
334.988098145,5586.925
335.285400391,5645.175
335.582641602,5653.375
335.879882812,5692.575
336.177124023,5697.775
336.474334717,5768.175
336.77154541,5752.825
337.068725586,5771.625
337.365905762,5793.575
337.66305542,5793.15
337.960205078,5832.5
338.257324219,5833.7
338.554443359,5844.9
338.8515625,5866.375
339.148590088,5856.1
339.445648193,5845.5
339.742736816,5834.35
340.039764404,5820.3
340.336761475,5811.05
340.63381958,5763.325
340.930755615,5732.625
341.227722168,5669.1
341.524688721,5582.75
341.821624756,5535.5
342.118560791,5559.8
342.415496826,5650.25
342.712402344,5744.05
343.009246826,5867.5
343.306121826,5983.05
343.602966309,6038.9
343.899810791,6105.15
344.196624756,6188.225
344.493438721,6206.225
344.79019165,6252.775
345.086975098,6320.9
345.383758545,6344.225
345.680480957,6337.5
345.977203369,6330.0
346.273956299,6374.625
346.570617676,6350.15
346.86730957,6369.25
347.163970947,6358.175
347.460601807,6384.425
347.757232666,6418.65
348.053894043,6374.325
348.350463867,6347.275
348.647064209,6330.3
348.943634033,6312.2
349.24017334,6344.85
349.536712646,6277.3
349.833251953,6303.35
350.129760742,6254.0
350.426208496,6258.5
350.722747803,6236.625
351.019195557,6201.225
351.315612793,6179.775
351.612060547,6135.325
351.908508301,6097.65
352.204864502,6063.725
352.501281738,6029.95
352.797637939,5961.95
353.093963623,5877.25
353.390319824,5822.4
353.686645508,5757.25
353.982940674,5697.575
354.27923584,5653.45
354.575531006,5588.2
354.871765137,5594.35
355.167999268,5582.65
355.464233398,5569.525
355.760437012,5589.175
356.056640625,5575.9
356.352813721,5579.0
356.648956299,5591.35
356.945129395,5610.25
357.241271973,5609.525
357.537384033,5619.125
357.833496094,5567.575
358.129577637,5548.75
358.425628662,5542.125
358.721679688,5517.95
359.017730713,5498.725
359.313720703,5450.05
359.609710693,5434.725
359.905761719,5394.55
360.201721191,5336.65
360.497650146,5279.375
360.793609619,5275.75
361.089538574,5197.75
361.385437012,5119.125
361.681365967,5104.65
361.977233887,5051.925
362.273071289,5006.375
362.568908691,4903.85
362.864746094,4805.075
363.160552979,4696.575
363.456359863,4528.9
363.752166748,4401.625
364.047912598,4320.675
364.343658447,4296.725
364.639434814,4325.075
364.935119629,4351.65
365.230834961,4414.925
365.526550293,4463.725
365.822174072,4451.575
366.117858887,4470.975
366.413482666,4486.775
366.709075928,4536.45
367.004730225,4430.0
367.300292969,4452.8
367.595855713,4484.9
367.891448975,4391.35
368.186981201,4291.15
368.482513428,4250.825
368.778015137,4244.45
369.073547363,4213.25
369.36895752,4224.4
369.664428711,4127.7
369.95993042,4031.8
370.255310059,3983.3
370.550720215,3960.45
370.846160889,3931.475
371.14151001,3893.2
371.436859131,3874.475
371.73223877,3865.0
372.027557373,3817.15
372.322875977,3774.025
372.618164062,3749.15
372.913482666,3725.75
373.208709717,3695.625
373.503967285,3651.125
373.799194336,3606.625
374.094421387,3610.7
374.389648438,3574.05
374.684844971,3582.6
374.979980469,3609.275
375.275146484,3624.0
375.570281982,3643.7
375.865386963,3651.475
376.160522461,3600.45
376.455596924,3600.25
376.750640869,3712.8
377.045715332,3708.75
377.340759277,3733.375
377.635772705,3785.7
377.93081665,3819.875
378.225769043,3899.225
378.520751953,3939.4
378.815734863,3894.1
379.110656738,4043.55
379.405548096,4202.7
379.700500488,4067.4
379.995391846,3886.875
380.290252686,3923.125
380.585083008,4029.275
380.879974365,4058.575
381.17477417,3977.875
381.469543457,3912.425
381.764404297,3898.45
382.059143066,3946.3
382.353912354,4025.7
382.648651123,4093.7
382.943389893,4081.65
383.238067627,3912.625
383.532775879,3924.65
383.827484131,3881.325
384.12210083,3879.85
384.416778564,3822.925
384.711425781,3725.6
385.006011963,3758.95
385.300628662,3754.075
385.595184326,3811.125
385.88973999,3903.7
386.184295654,3998.4
386.478820801,4063.725
386.77331543,4158.875
387.067840576,4254.575
387.362335205,4343.55
387.656768799,4412.0
387.951202393,4456.95
388.245635986,4501.075
388.540039062,4565.275
388.834472656,4645.975
389.128875732,4535.15
389.423187256,4323.7
389.717559814,4279.475
390.011871338,4366.15
390.306182861,4398.175
390.600463867,4419.975
390.894775391,4490.425
391.189025879,4502.275
391.48324585,4487.7
391.777526855,4562.45
392.071685791,4757.275
392.365875244,4834.7
392.660064697,4890.225
392.95425415,5199.05
393.248382568,5198.075
393.542510986,4759.725
393.836608887,4581.975
394.130706787,4603.525
394.424804688,4537.475
394.71887207,4658.675
395.012878418,4612.825
395.306915283,4530.325
395.600921631,4494.075
395.894927979,4444.375
396.188903809,4489.55
396.482879639,4504.25
396.776794434,4698.325
397.070739746,4666.8
397.364654541,4669.975
397.658538818,5034.1
397.952423096,5069.225
398.246307373,5024.325
398.540100098,5523.7
398.833953857,5379.55
399.127746582,4938.075
399.421508789,4947.625
399.715301514,4902.225
400.009063721,4804.95
400.30279541,4692.275
400.596496582,4598.45
400.890258789,4747.1
401.183929443,4827.55
401.47756958,4714.0
401.771240234,4515.7
402.064880371,4538.85
402.35848999,4566.4
402.652130127,4478.575
402.945678711,4531.875
403.239257812,4476.6
403.532775879,4445.25
403.82635498,4482.525
404.119842529,4398.625
404.413360596,4402.525
404.706848145,4444.25
405.000274658,4390.9
405.293762207,4461.725
405.587188721,4509.3
405.880584717,4356.175
406.17401123,4179.825
406.467407227,4006.075
406.760742188,4018.5
407.054107666,4056.525
407.347442627,3963.95
407.640716553,3948.175
407.934051514,4027.8
408.227325439,4089.6
408.520568848,4287.05
408.813842773,4372.4
409.107086182,4178.525
409.400238037,4120.525
409.693450928,4068.3
409.986633301,4176.425
410.279754639,4096.5
410.572875977,3823.925
410.86605835,3770.875
411.159118652,3773.975
411.452209473,3785.275
411.745330811,3659.6
412.038360596,3580.6
412.331390381,3613.625
412.624420166,3659.5
412.917388916,3580.725
413.210388184,3406.075
413.503387451,3382.4
413.796295166,3286.275
414.089233398,3113.475
414.382141113,3050.975
414.675048828,3042.95
414.967926025,3066.925
415.260803223,3018.15
415.55368042,3036.525
415.846466064,2989.075
416.139282227,3077.75
416.432098389,3191.2
416.724853516,3184.375
417.017608643,3125.825
417.31036377,3142.85
417.603088379,3273.575
417.895782471,3225.6
418.188476562,3195.825
418.481140137,3259.225
418.773803711,3339.95
419.066436768,3284.45
419.359039307,3367.975
419.651641846,3375.05
419.944244385,3358.95
420.236816406,3322.85
420.529327393,3530.4
420.821899414,3586.225
421.114379883,3519.475
421.406860352,3773.85
421.699371338,3981.475
421.991821289,3934.225
422.284240723,3749.85
422.576721191,3607.95
422.869110107,3507.425
423.161468506,3452.35
423.453857422,3505.775
423.74621582,3380.1
424.038543701,3241.15
424.330871582,3222.325
424.623168945,3167.725
424.915435791,3294.25
425.207702637,3249.3
425.499969482,3196.625
425.792205811,3143.25
426.084411621,2918.1
426.376617432,2987.5
426.668762207,3050.575
426.9609375,2951.1
427.253082275,3044.225
427.545196533,3430.825
427.837310791,3168.4
428.129425049,2899.45
428.421447754,3104.0
428.713531494,3107.8
429.005554199,3098.475
429.297576904,3114.85
429.589599609,3487.4
429.881561279,3802.075
430.173522949,3596.375
430.465484619,3542.55
430.757415771,3617.6
431.049316406,3409.525
431.341186523,3198.75
431.633117676,3098.175
431.924957275,2831.1
432.21673584,2726.05
432.508636475,2857.1
432.800415039,2875.475
433.092163086,2784.075
433.383972168,2744.4
433.675689697,3406.325
433.967437744,3856.7
434.259155273,2992.7
434.550872803,2692.225
434.842498779,2733.775
435.134185791,2852.15
435.425842285,2886.925
435.717437744,2793.0
436.009063721,2620.5
436.30065918,2747.95
436.592224121,3072.975
436.883758545,2886.85
437.175323486,2654.025
437.466827393,2614.8
437.758331299,2646.15
438.049804688,2654.475
438.341247559,2721.175
438.63269043,2791.3
438.924163818,2779.575
439.215515137,2747.075
439.50692749,2651.075
439.798309326,2658.45
440.089660645,2668.3
440.380981445,2586.575
440.672332764,2573.55
440.963623047,2825.2
441.254882812,3260.975
441.546173096,3426.55
441.837402344,3182.3
442.128631592,3007.075
442.41986084,2982.7
442.711029053,2871.025
443.002197266,2936.675
443.293365479,3112.8
443.584503174,3229.925
443.875610352,3197.825
444.166717529,2953.75
444.457794189,3016.0
444.748840332,2983.275
445.039916992,2938.95
445.330932617,3039.4
445.621948242,2896.9
445.912963867,2717.275
446.203918457,2923.225
446.494812012,3139.025
446.785827637,2957.1
447.076721191,2778.7
447.367584229,2759.65
447.658447266,2749.6
447.949371338,2783.0
448.24017334,2684.95
448.530975342,2613.0
448.821838379,2769.65
449.112579346,2835.525
449.40335083,2786.65
449.694152832,2803.8
449.984863281,2822.45
450.27557373,2751.45
450.56628418,2797.6
450.856933594,2831.075
451.147583008,2686.15
451.438262939,2570.45
451.728881836,2771.95
452.019470215,2849.725
452.310089111,2661.775
452.600646973,2685.925
452.891174316,2731.125
453.181732178,2583.275
453.472229004,2456.225
453.762695312,2565.875
454.053222656,2583.8
454.343658447,2467.15
454.634063721,2413.0
454.924530029,2569.65
455.214935303,2699.25
455.505279541,2761.775
455.795715332,2632.15
456.086029053,2446.45
456.376312256,2442.225
456.666687012,2466.8
456.956939697,2563.15
457.247192383,2566.975
457.537445068,2619.95
457.827728271,2809.25
458.117919922,2741.375
458.408081055,2661.325
458.698303223,2823.725
458.988433838,2777.375
459.278564453,2601.4
459.568725586,2868.45
459.858825684,2961.15
460.148864746,2679.0
460.438995361,2649.125
460.729034424,2694.225
461.019042969,2713.575
461.309082031,2881.4
461.599060059,2780.55
461.889007568,2349.525
462.179016113,2187.25
462.468933105,2402.25
462.75881958,2507.65
463.048736572,2282.7
463.338592529,2522.75
463.628448486,2858.15
463.918365479,2579.05
464.2081604,2728.15
464.497924805,2703.2
464.787780762,2812.175
465.077514648,3105.775
465.367218018,2738.55
465.657012939,2928.875
465.946685791,3305.175
466.236358643,2947.925
466.526092529,2450.9
466.815734863,2435.925
467.105316162,2372.525
467.394927979,2417.625
467.684570312,2270.775
467.974121094,2368.625
468.263671875,2459.85
468.553222656,2255.95
468.842773438,2154.65
469.132232666,2055.425
469.42175293,2094.05
469.711212158,2065.8
470.000640869,1945.6
470.290100098,2001.4
470.579498291,2040.5
470.868835449,2033.2
471.158294678,1990.375
471.447601318,1978.125
471.736907959,2044.75
472.026275635,2102.9
472.315551758,2088.05
472.604797363,2075.225
472.894104004,2196.325
473.183319092,2310.1
473.47253418,2289.6
473.761779785,2277.525
474.05090332,2226.1
474.340087891,2170.7
474.629241943,2127.975
474.918365479,2274.975
475.207427979,2529.325
475.496551514,2553.875
475.785614014,2311.8
476.074645996,2117.5
476.363708496,2208.475
476.652679443,2346.45
476.941650391,2166.95
477.230682373,2031.35
477.519622803,2029.675
477.808502197,2168.375
478.097412109,2417.55
478.386352539,2368.425
478.675201416,2128.475
478.964050293,2025.525
479.25289917,2202.725
479.541717529,2247.2
479.830474854,2104.275
480.11932373,2419.95
480.408050537,2603.45
480.696777344,2244.1
480.985534668,2119.7
481.274200439,2197.475
481.562866211,2438.975
481.851593018,2443.25
482.140197754,2398.925
482.428833008,2242.025
482.717468262,2066.4
483.006011963,2086.6
483.294586182,2196.25
483.5831604,2232.675
483.871673584,2129.675
484.16015625,2233.675
484.448699951,2456.25
484.7371521,2507.9
485.02557373,2507.3
485.314025879,2255.325
485.602416992,3483.4
485.890777588,12393.975
486.179199219,11130.85
486.467559814,2971.875
486.755859375,2164.5
487.044219971,2498.825
487.332519531,2681.55
487.620758057,2298.025
487.908966064,2063.475
488.197265625,1885.0
488.485473633,1782.35
488.773651123,1895.5
489.061859131,1881.35
489.350006104,1834.125
489.638122559,1780.925
489.926300049,1826.125
490.214355469,1752.025
490.502441406,1719.525
490.790527344,1652.375
491.078552246,1829.925
491.366546631,1823.075
491.654602051,1618.675
491.942565918,1688.35
492.230499268,1717.525
492.518493652,1681.775
492.806396484,1723.375
493.094268799,1632.475
493.382202148,1672.125
493.670074463,1783.025
493.957885742,1636.675
494.245727539,1623.3
494.533508301,1782.85
494.821289062,1693.125
495.109100342,1548.925
495.396850586,1490.35
495.684539795,1447.925
495.972290039,1651.225
496.25994873,1970.125
496.547607422,1977.4
496.835296631,1796.95
497.122894287,1501.6
497.410522461,1437.65
497.6980896,1454.45
497.985687256,1401.6
498.273223877,1488.025
498.560760498,1573.05
498.848266602,1583.7
499.135772705,1563.175
499.423217773,1589.45
499.710693359,1694.6
499.998138428,1635.7
500.285522461,1485.05
500.572937012,1418.625
500.860290527,1464.275
501.147644043,1554.05
501.434997559,1741.225
501.722290039,1633.3
502.00958252,1416.5
502.296875,1673.6
502.584106445,1642.675
502.871337891,1476.025
503.158599854,1549.875
503.445770264,1627.325
503.732910156,1597.15
504.020141602,1425.75
504.307220459,1425.25
504.594329834,1454.225
504.881469727,1391.45
505.168518066,1468.05
505.455535889,1510.45
505.742614746,1404.55
506.029632568,1347.9
506.316589355,1519.925
506.603637695,1595.15
506.890563965,1428.025
507.177459717,1270.025
507.464385986,1187.4
507.751312256,1394.6
508.038146973,1468.975
508.325012207,1341.55
508.611877441,1389.725
508.898681641,1410.375
509.185424805,1256.875
509.472259521,1222.225
509.759002686,1297.65
510.045715332,1335.625
510.332458496,1270.525
510.619140625,1330.975
510.905761719,1255.175
511.192504883,1252.85
511.479095459,1286.3
511.765686035,1238.075
512.052307129,1168.7
512.338928223,1117.3
512.625427246,1176.125
512.91204834,1215.45
513.198486328,1207.825
513.484985352,1178.1
513.77142334,1112.7
514.057922363,1151.075
514.344299316,1146.25
514.63079834,1106.25
514.917175293,1098.075
515.203552246,1011.4
515.489868164,995.925
515.776245117,1101.5
516.0625,1147.625
516.348815918,1062.1
516.635070801,1081.15
516.921325684,1144.925
517.207580566,1090.3
517.493774414,1002.225
517.779968262,1013.225
518.066101074,1047.7
518.352294922,1005.2
518.638366699,999.3
518.924499512,1066.7
519.210632324,1143.45
519.496643066,1112.475
519.782714844,1026.575
520.068786621,994.1
520.354736328,962.7
520.640686035,918.55
520.926757812,958.75
521.212646484,1025.65
521.498535156,1041.65
521.784484863,988.775
522.0703125,924.325
522.356262207,943.075
522.642089844,1008.925
522.927856445,1013.0
523.213684082,1003.75
523.499511719,1001.65
523.78527832,1031.225
524.070983887,1081.2
524.356750488,1059.0
524.64239502,1013.775
524.928039551,1017.425
525.213806152,1032.75
525.499389648,1025.35
525.784973145,1043.125
526.070617676,1092.875
526.356140137,1062.75
526.641723633,1066.675
526.927307129,1114.125
527.212768555,1126.35
527.498291016,1108.1
527.783752441,1105.5
528.069213867,1086.175
528.354675293,1104.625
528.640014648,1248.975
528.925476074,1332.55
529.21081543,1250.725
529.496154785,1227.075
529.781555176,1203.125
530.066833496,1227.825
530.352050781,1230.9
530.637390137,1219.65
530.922607422,1219.15
531.207824707,1225.075
531.493041992,1209.35
531.778198242,1263.225
532.063354492,1256.45
532.348571777,1202.225
532.633666992,1214.55
532.918762207,1294.7
533.203857422,1380.65
533.488891602,1408.4
533.773925781,1343.775
534.059020996,1323.825
534.343933105,1354.025
534.628967285,1328.875
534.91394043,1343.375
535.198852539,1359.425
535.483703613,1336.1
535.768676758,1272.4
536.053527832,1280.725
536.338317871,1245.95
536.62322998,1192.225
536.90802002,1159.425
537.192810059,1198.575
537.477539062,1261.625
537.762329102,1302.6
538.047058105,1336.725
538.331726074,1369.725
538.616455078,1353.075
538.901123047,1331.975
539.18572998,1375.65
539.470397949,1377.675
539.755004883,1368.0
540.039550781,1329.425
540.32409668,1291.075
540.608703613,1332.175
540.893188477,1420.55
541.17767334,1441.0
541.462158203,1444.35
541.746643066,1397.875
542.031066895,1431.075
542.315429688,1468.1
542.59979248,1472.25
542.884216309,1453.625
543.168579102,1445.8
543.452941895,1467.875
543.737243652,1513.25
544.021484375,1558.425
544.305725098,1540.9
544.590026855,1523.75
544.874267578,1529.625
545.158447266,1596.5
545.442626953,1516.775
545.726806641,1419.7
546.010925293,1455.725
546.29510498,1476.625
546.579162598,1477.0
546.863220215,1508.875
547.147277832,1572.925
547.431335449,1648.975
547.715332031,1708.725
547.999328613,1817.175
548.283325195,1812.975
548.567260742,1672.95
548.851135254,1656.075
549.135070801,1630.5
549.419006348,1547.0
549.702819824,1631.925
549.986755371,1689.725
550.270507812,1663.475
550.554321289,1715.875
550.83807373,1713.75
551.121826172,1670.5
551.405517578,1697.25
551.689331055,1808.425
551.973022461,2014.375
552.256652832,2075.275
552.540344238,1987.15
552.823974609,1961.95
553.107543945,1969.4
553.391174316,2008.55
553.674743652,2054.375
553.958251953,2063.85
554.241821289,2083.9
554.525268555,2008.1
554.808776855,2014.375
555.092285156,2196.65
555.375671387,2283.675
555.659057617,2268.55
555.942504883,2301.35
556.225891113,2335.525
556.509216309,2289.975
556.792541504,2204.7
557.075866699,2280.225
557.359130859,2316.425
557.64239502,2318.025
557.92565918,2385.875
558.208862305,2380.525
558.49206543,2311.675
558.77532959,2318.775
559.058410645,2374.075
559.341552734,2353.675
559.624694824,2412.9
559.907775879,2476.725
560.190856934,2586.35
560.473937988,2590.05
560.756896973,2628.075
561.039978027,2661.725
561.322937012,2613.7
561.605895996,2611.325
561.88885498,2569.525
562.171813965,2571.75
562.454650879,2568.15
562.737548828,2600.775
563.020446777,2664.65
563.303283691,2685.95
563.58605957,2729.9
563.868896484,2738.175
564.151672363,2789.15
564.434387207,2825.05
564.717163086,2789.5
564.99987793,2817.9
565.282531738,2889.65
565.565185547,2815.0
565.847839355,2842.775
566.130432129,2950.6
566.413085938,2921.175
566.695678711,2940.1
566.978149414,3050.5
567.260681152,3185.325
567.543273926,3255.0
567.825744629,3164.65
568.108154297,3195.9
568.390686035,3319.5
568.673095703,3438.175
568.955505371,3494.35
569.237854004,3516.9
569.520202637,3776.45
569.802490234,3987.175
570.084838867,3959.275
570.367126465,3787.5
570.649414062,3810.5
570.93170166,4145.425
571.213928223,4208.75
571.496154785,4004.65
571.778381348,4191.2
572.06048584,4450.325
572.342590332,4004.45
572.624755859,3669.925
572.906860352,3735.125
573.188903809,4403.05
573.470947266,4630.85
573.752990723,4410.7
574.03503418,4505.25
574.317016602,4869.775
574.598937988,4665.0
574.88092041,4554.125
575.162841797,4728.55
575.444763184,4366.8
575.726623535,4123.325
576.008483887,4164.525
576.290344238,4551.425
576.572143555,4744.7
576.853881836,4800.075
577.135681152,4714.95
577.417419434,4771.35
577.699157715,5617.45
577.980895996,5782.125
578.262573242,5147.175
578.544128418,4686.8
578.825866699,4600.225
579.107421875,4323.7
579.388977051,4503.95
579.670593262,4873.225
579.952148438,4740.125
580.233642578,4827.65
580.515197754,4940.675
580.796691895,4627.0
581.078125,4823.375
581.359619141,6245.875
581.640991211,6352.1
581.922363281,5486.4
582.203796387,5532.725
582.485107422,5195.075
582.766418457,4800.575
583.047790527,4663.9
583.329040527,4543.175
583.610290527,4432.4
583.891540527,4546.325
584.172790527,4851.725
584.453918457,4853.575
584.735107422,4910.5
585.016235352,5346.15
585.297363281,5314.725
585.578552246,5125.1
585.859619141,5074.85
586.140625,4852.925
586.421630859,4706.85
586.702697754,4765.2
586.983642578,4984.225
587.264648438,5128.225
587.545654297,5081.8
587.826477051,5034.7
588.107421875,4845.275
588.388305664,4906.0
588.669189453,4982.675
588.950012207,4825.225
589.230834961,4756.275
589.511657715,4832.1
589.792358398,4920.975
590.073120117,4928.275
590.353881836,4904.3
590.63458252,4900.575
590.915283203,4891.225
591.195922852,4872.625
591.4765625,4915.55
591.757202148,4953.85
592.037780762,4952.25
592.31829834,4943.95
592.598937988,5151.3
592.879394531,5291.9
593.159912109,5224.0
593.440429688,5150.475
593.720825195,5135.7
594.001281738,5135.675
594.281677246,5030.3
594.562072754,5052.6
594.842407227,5156.425
595.122802734,5200.8
595.403137207,5172.825
595.683410645,5148.925
595.963623047,5144.45
596.243896484,5094.0
596.524169922,5084.45
596.804382324,5107.5
597.084533691,5153.4
597.364746094,5171.775
597.644836426,5197.825
597.924987793,5183.075
598.205078125,5152.725
598.485107422,5171.5
598.765197754,5291.55
599.045227051,5332.1
599.325195312,5253.55
599.605224609,5224.275
599.885192871,5271.55
600.165100098,5272.225
600.445007324,5252.825
600.724914551,5237.65
601.004760742,5274.0
601.284667969,5291.3
601.56451416,5231.375
601.844238281,5249.85
602.124084473,5271.2
602.403808594,5256.575
602.683532715,5287.275
602.963256836,5284.05
603.242919922,5335.45
603.522583008,5378.075
603.802246094,5338.675
604.081848145,5308.325
604.36138916,5276.5
604.641052246,5315.525
604.920532227,5273.375
605.200073242,5300.725
605.479614258,5328.45
605.759094238,5368.975
606.038574219,5366.1
606.317932129,5285.225
606.597412109,5305.8
606.87677002,5299.15
607.15612793,5358.275
607.435546875,5359.625
607.714782715,5369.175
607.99407959,5321.3
608.273376465,5317.35
608.552612305,5345.65
608.831848145,5343.275
609.111083984,5334.6
609.390258789,5324.575
609.669433594,5314.8
609.948608398,5379.825
610.227722168,5371.125
610.506713867,5312.275
610.785888672,5315.05
611.064880371,5311.05
611.34387207,5310.575
611.622924805,5331.525
611.901916504,5330.25
612.180847168,5266.575
612.459777832,5269.375
612.738647461,5275.225
613.01751709,5251.3
613.296447754,5204.75
613.575317383,5162.575
613.854064941,5110.125
614.132873535,5044.125
614.411621094,4993.825
614.690368652,4948.975
614.969177246,4892.675
615.247802734,4834.1
615.526489258,4790.175
615.805175781,4697.675
616.08380127,4579.675
616.362365723,4501.75
616.640991211,4465.625
616.919555664,4401.275
617.198059082,4514.025
617.4765625,4763.85
617.755126953,4904.525
618.033569336,4933.35
618.311950684,4926.25
618.590454102,4929.4
618.868774414,4891.925
619.147155762,4904.775
619.425598145,4893.025
619.703857422,4907.05
619.982177734,4912.425
620.260498047,4899.725
620.538757324,4892.2
620.816955566,4879.75
621.095214844,4818.85
621.373413086,4835.525
621.651550293,4896.85
621.929748535,4924.0
622.207824707,4892.275
622.485900879,4901.575
622.764038086,4915.75
623.042053223,4937.2
623.320007324,4962.425
623.598083496,4956.825
623.876037598,4913.3
624.153991699,4943.975
624.432006836,4968.55
624.709838867,4971.375
624.987731934,4954.725
625.265563965,4949.575
625.543395996,4970.275
625.821228027,5004.325
626.098999023,5021.2
626.376831055,5057.75
626.654541016,5062.05
626.932250977,5120.925
627.209960938,5146.825
627.487670898,5160.825
627.765319824,5179.75
628.04296875,5190.4
628.320495605,5185.15
628.598083496,5177.975
628.875671387,5221.1
629.153259277,5231.875
629.430725098,5291.35
629.708251953,5278.025
629.985656738,5300.55
630.263122559,5331.2
630.540588379,5342.725
630.817932129,5375.225
631.095275879,5392.1
631.372680664,5417.225
631.649963379,5470.8
631.927246094,5521.65
632.204589844,5527.875
632.481811523,5593.125
632.759033203,5668.975
633.036254883,5706.425
633.313415527,5756.075
633.590576172,5816.725
633.867736816,5881.225
634.144836426,5958.375
634.421875,5999.875
634.698913574,6084.175
634.976013184,6084.1
635.252990723,6157.725
635.529968262,6181.275
635.807006836,6256.875
636.08392334,6221.425
636.360839844,6151.9
636.637756348,6062.05
636.914611816,6045.775
637.191467285,6007.4
637.468261719,6069.85
637.745056152,6032.075
638.021789551,6052.7
638.298583984,6063.0
638.575317383,6096.925
638.851989746,6086.075
639.12878418,6115.95
639.405395508,6108.55
639.682006836,6111.35
639.958618164,6122.4
640.235229492,6082.8
640.511779785,6123.65
640.788330078,6115.4
641.064880371,6109.075
641.341308594,6067.0
641.617797852,6100.95
641.894226074,6084.725
642.170654297,6079.55
642.44708252,6104.775
642.723388672,6081.775
642.999755859,6065.85
643.276123047,6107.15
643.552429199,6059.9
643.828674316,6045.85
644.104919434,6073.3
644.381164551,6033.45
644.657348633,6044.2
644.933532715,6005.975
645.209716797,5994.95
645.485839844,6007.625
645.761901855,6023.775
646.038024902,5990.05
646.314086914,6014.55
646.590087891,5980.3
646.866149902,6037.4
647.142150879,5958.925
647.41809082,5933.1
647.694030762,5949.65
647.969970703,5927.05
648.245788574,5954.35
648.521728516,5925.925
648.797546387,5921.7
649.073303223,5932.1
649.349182129,5918.075
649.624938965,5898.025
649.900634766,5927.15
650.176391602,5893.9
650.452087402,5897.85
650.727783203,5882.95
651.003479004,5893.975
651.279052734,5867.85
651.554626465,5861.575
651.83026123,5841.2
652.105773926,5879.35
652.381286621,5819.375
652.656860352,5819.275
652.932312012,5836.7
653.207763672,5838.375
653.483215332,5876.9
653.758605957,5847.4
654.033935547,5836.475
654.309326172,5848.85
654.584716797,5848.775
654.859985352,5826.15
655.135253906,5864.35
655.410583496,5851.5
655.685791016,6741.075
655.9609375,10535.2
656.236206055,10291.275
656.511291504,6800.925
656.786437988,5972.25
657.061645508,5873.175
657.336669922,5838.1
657.611694336,5863.675
657.886779785,5865.875
658.161804199,5897.4
658.436828613,5848.3
658.711791992,5868.325
658.986755371,5858.45
659.261657715,5858.35
659.536621094,5878.075
659.811401367,5881.25
660.086303711,5867.45
660.36114502,5870.55
660.635864258,5851.675
660.910644531,5878.675
661.185424805,5865.05
661.460205078,5888.525
661.734863281,5889.825
662.009521484,5886.65
662.284179688,5892.275
662.558776855,5895.9
662.833435059,5932.95
663.108032227,5921.1
663.382568359,5903.475
663.657043457,5951.325
663.93157959,5946.3
664.206054688,5917.9
664.48046875,5942.675
664.755004883,5962.25
665.02935791,5962.75
665.303710938,5961.6
665.578125,5986.95
665.852416992,5989.7
666.126708984,5970.4
666.401062012,5987.825
666.675292969,5999.575
666.949462891,6009.525
667.223754883,5986.55
667.497924805,6020.15
667.772094727,6009.0
668.046264648,5981.25
668.3203125,6049.75
668.594421387,6040.575
668.868469238,6039.2
669.14251709,6041.375
669.416503906,6033.675
669.690551758,6031.275
669.964477539,6053.55
670.23840332,6029.225
670.512329102,6045.85
670.786254883,6018.95
671.060058594,6057.65
671.333984375,6049.375
671.607788086,6061.75
671.881530762,6050.7
672.155334473,6087.8
672.429077148,6076.875
672.702758789,6093.475
672.97644043,6046.025
673.25012207,6043.325
673.523742676,6030.925
673.797302246,6049.525
674.070922852,6090.7
674.344482422,6074.7
674.618041992,6071.975
674.891601562,6059.35
675.165100098,6062.625
675.438476562,6064.35
675.711975098,6061.075
675.985412598,6061.025
676.258789062,6031.5
676.532165527,6060.775
676.805480957,6069.75
677.078796387,6048.775
677.352111816,6041.275
677.625366211,6033.35
677.898620605,6030.05
678.171875,6067.125
678.445007324,6049.575
678.718200684,6053.675
678.991394043,6037.825
679.264404297,6035.7
679.537536621,6053.75
679.81060791,6042.75
680.083679199,6019.625
680.356689453,6029.875
680.629699707,6034.4
680.902648926,5994.9
681.175598145,6046.825
681.448547363,6055.925
681.721435547,6014.425
681.99420166,6015.2
682.267150879,6003.6
682.539916992,6030.4
682.812744141,6003.625
683.085510254,5974.725
683.358215332,5986.3
683.63092041,5961.0
683.903625488,5991.675
684.176330566,5952.3
684.448913574,5913.725
684.721557617,5915.625
684.99420166,5972.0
685.266662598,5957.975
685.539245605,5943.175
685.811767578,5956.875
686.084289551,5946.475
686.356689453,5987.875
686.629150391,5991.85
686.901550293,5998.525
687.17401123,5982.25
687.446350098,5969.225
687.718688965,5961.025
687.990966797,5999.975
688.263305664,5990.675
688.535522461,5967.675
688.807739258,5951.825
689.079956055,5983.525
689.352172852,5976.8
689.624328613,5978.925
689.896484375,5982.65
690.168518066,5990.65
690.440612793,5994.475
690.71270752,5981.15
690.984741211,5975.25
691.256713867,5997.85
691.528747559,5976.6
691.800720215,5976.375
692.072631836,5980.9
692.344543457,6003.75
692.616394043,5965.475
692.888244629,5983.05
693.160095215,6010.075
693.431945801,5996.525
693.703674316,5972.3
693.975463867,5951.075
694.247131348,5981.15
694.518859863,5959.85
694.790588379,5980.0
695.062255859,5954.5
695.33380127,5941.825
695.60546875,5951.0
695.87701416,5948.975
696.148498535,5955.15
696.42010498,5980.5
696.691589355,5981.65
696.96307373,5972.6
697.234558105,5988.575
697.50592041,5975.4
697.777282715,5967.575
698.048706055,5965.8
698.320068359,5975.45
698.591308594,5978.85
698.862670898,5945.15
699.133972168,5992.425
699.405151367,5948.5
699.676391602,5972.9
699.947570801,5926.0
700.21875,5962.225
700.489868164,5944.0
700.761047363,5930.475
701.032104492,5978.6
701.303100586,5891.825
701.57421875,5937.8
701.845214844,5929.475
702.116149902,5934.475
702.387207031,5890.9
702.65814209,5918.175
702.928955078,5930.1
703.199951172,5915.875
703.47076416,5878.6
703.741577148,5871.475
704.012451172,5899.275
704.28314209,5884.4
704.553955078,5881.225
704.824707031,5896.7
705.095397949,5916.925
705.366027832,5916.6
705.63671875,5903.2
705.907348633,5852.275
706.17791748,5883.325
706.448486328,5877.9
706.719055176,5851.825
706.989562988,5883.525
707.260131836,5888.425
707.530517578,5884.125
707.800964355,5882.775
708.071411133,5831.95
708.341796875,5844.9
708.612182617,5838.65
708.882446289,5803.025
709.152893066,5815.275
709.423156738,5819.575
709.693359375,5787.925
709.963623047,5812.25
710.233825684,5802.5
710.503967285,5770.6
710.774169922,5777.725
711.044311523,5764.225
711.31439209,5751.675
711.584533691,5759.85
711.854553223,5744.8
712.124572754,5761.975
712.39465332,5710.05
712.664611816,5741.7
712.934509277,5763.55
713.204467773,5746.625
713.474365234,5745.0
713.74420166,5730.85
714.014099121,5723.925
714.283874512,5753.825
714.553710938,5742.875
714.823486328,5741.975
715.093200684,5689.875
715.362915039,5732.625
715.632629395,5673.8
715.902282715,5677.325
716.171875,5665.675
716.441589355,5655.975
716.711181641,5639.625
716.980712891,5659.225
717.250244141,5647.975
717.519775391,5639.575
717.78918457,5636.925
718.058654785,5669.6
718.328125,5672.7
718.597473145,5646.65
718.866882324,5636.975
719.136230469,5632.425
719.405578613,5653.05
719.674865723,5652.6
719.944152832,5615.65
720.213439941,5593.975
720.48260498,5609.275
720.75177002,5638.5
721.020996094,5606.55
721.290100098,5599.6
721.559204102,5568.725
721.828308105,5577.9
722.097351074,5568.15
722.366455078,5572.525
722.635437012,5557.9
722.904418945,5536.3
723.173400879,5537.0
723.442321777,5563.8
723.711181641,5530.6
723.980102539,5546.825
724.248962402,5533.025
724.51776123,5513.825
724.786560059,5530.825
725.055358887,5525.275
725.324035645,5513.55
725.592834473,5510.425
725.86151123,5482.375
726.130187988,5486.525
726.398803711,5465.325
726.667419434,5472.0
726.935974121,5483.275
727.204528809,5432.725
727.473083496,5437.525
727.741638184,5418.35
728.010070801,5382.45
728.278564453,5386.35
728.546936035,5389.55
728.815368652,5341.55
729.08380127,5288.075
729.352111816,5277.25
729.620361328,5209.85
729.88873291,5250.825
730.156982422,5281.125
730.425231934,5264.575
730.693481445,5273.55
730.961669922,5312.9
731.229797363,5312.775
731.49798584,5329.55
731.766113281,5361.15
732.034118652,5419.975
732.302246094,5422.4
732.570251465,5442.075
732.838256836,5472.8
733.106262207,5495.5
733.374145508,5499.825
733.642089844,5545.725
733.909973145,5580.375
734.177856445,5608.375
734.445678711,5634.0
734.713562012,5733.3
734.981323242,5718.625
735.249084473,5746.0
735.516845703,5812.85
735.784545898,5858.45
736.052185059,5863.275
736.319885254,5944.575
736.587524414,5979.925
736.855102539,5987.675
737.122619629,6088.85
737.390197754,6100.15
737.657714844,6168.95
737.925170898,6202.25
738.192749023,6255.2
738.460144043,6270.975
738.727539062,6314.425
738.994995117,6369.3
739.262329102,6409.5
739.529663086,6468.525
739.79699707,6500.925
740.06427002,6533.65
740.331481934,6571.175
740.598754883,6629.625
740.865905762,6628.45
741.133056641,6702.2
741.40032959,6704.3
741.667358398,6790.325
741.934448242,6794.775
742.201599121,6818.425
742.468566895,6882.125
742.735534668,6890.05
743.002563477,6931.375
743.26953125,6889.175
743.536437988,6971.175
743.803405762,6999.3
744.0703125,6994.2
744.337097168,7036.725
744.604003906,7008.525
744.870727539,7038.35
745.137512207,7052.025
745.40423584,7066.55
745.670959473,7057.375
745.93762207,7061.5
746.204284668,7090.95
746.470947266,7093.45
746.737548828,7092.4
747.004089355,7098.525
747.270751953,7152.075
747.53717041,7135.125
747.803710938,7093.575
748.070251465,7111.975
748.336608887,7099.5
748.603027344,7067.875
748.869445801,7086.25
749.135803223,7081.95
749.402099609,7084.375
749.668457031,7076.825
749.934753418,7056.475
750.20098877,7055.75
750.467224121,7075.575
750.733459473,7038.7
750.999572754,7018.8
751.26574707,6988.775
751.531860352,7024.075
751.797912598,6983.225
752.064025879,6950.5
752.330078125,6973.875
752.596069336,6940.35
752.862060547,6915.625
753.127990723,6927.475
753.393920898,6900.825
753.659912109,6887.45
753.925720215,6916.7
754.19152832,6874.925
754.457397461,6843.25
754.723144531,6804.775
754.988952637,6803.95
755.254699707,6823.1
755.520385742,6814.125
755.786071777,6821.325
756.051696777,6790.275
756.317382812,6756.4
756.582946777,6731.225
756.848510742,6742.4
757.114074707,6729.3
757.379577637,6712.925
757.645080566,6757.625
757.910583496,6739.475
758.175964355,6699.05
758.441345215,6685.025
758.706848145,6599.175
758.972106934,6605.85
759.237426758,6600.225
759.502807617,6658.175
759.768005371,6643.375
760.03326416,6633.05
760.298522949,6550.4
760.563659668,6607.375
760.828857422,6590.825
761.093994141,6606.0
761.359130859,6549.0
761.624206543,6546.225
761.889282227,6507.575
762.15423584,6524.375
762.419250488,6491.8
762.684265137,6465.275
762.949157715,6452.4
763.214050293,6440.4
763.479003906,6471.825
763.743835449,6444.725
764.008666992,6432.875
764.2734375,6406.5
764.538208008,6426.8
764.802978516,6436.85
765.067687988,6420.1
765.332397461,6416.1
765.597045898,6395.525
765.861694336,6383.825
766.126342773,6369.075
766.390930176,6354.15
766.655395508,6357.125
766.920043945,6327.95
767.184509277,6309.125
767.448974609,6309.1
767.713439941,6297.275
767.977783203,6267.175
768.2421875,6296.525
768.506591797,6262.55
768.770874023,6345.225
769.03515625,6314.6
769.299499512,6303.3
769.563720703,6298.875
769.827941895,6263.025
770.092163086,6258.225
770.356323242,6236.325
770.620483398,6287.225
770.88458252,6275.35
771.148681641,6274.85
771.412719727,6257.125
771.676757812,6287.375
771.940734863,6232.875
772.204711914,6244.325
772.468688965,6221.85
772.73260498,6224.475
772.996459961,6222.925
773.260314941,5527.575
773.524169922,743.875
773.787963867,137.95
774.051696777,120.625
774.315551758,117.575
774.579223633,120.9
774.842895508,118.425
775.106567383,119.35
775.370239258,119.35
775.633789062,122.875
775.897399902,124.075
776.160949707,115.6
776.424499512,121.5
776.687988281,122.275
776.951477051,125.175
777.214904785,120.65
777.47833252,120.025
