191.299911499,100.35
191.603515625,103.675
191.907119751,94.375
192.210693359,105.175
192.514251709,97.6
192.817810059,101.875
193.121368408,103.4
193.42489624,106.375
193.728408813,96.85
194.031936646,102.075
194.33543396,91.55
194.638916016,110.75
194.94241333,97.675
195.245880127,99.825
195.549331665,94.95
195.852767944,100.05
196.156204224,169.275
196.459625244,167.325
196.763015747,166.925
197.066436768,174.15
197.369812012,165.275
197.673187256,169.175
197.9765625,166.25
198.279922485,169.8
198.583251953,162.425
198.886581421,168.225
199.18989563,170.075
199.493209839,170.45
199.79649353,162.225
200.09979248,174.275
200.403076172,164.475
200.706314087,166.625
201.009567261,164.175
201.312820435,169.55
201.616027832,162.0
201.919235229,154.875
202.222457886,162.6
202.525634766,166.125
202.828826904,159.75
203.132003784,155.925
203.435150146,158.975
203.738296509,159.775
204.041412354,157.5
204.344558716,164.75
204.647659302,164.55
204.950759888,168.425
205.253845215,165.8
205.556930542,156.275
205.859985352,164.225
206.163024902,161.375
206.466079712,160.55
206.769104004,171.05
207.072113037,162.925
207.375137329,161.75
207.678131104,165.65
207.981109619,164.875
208.284088135,159.875
208.587036133,165.95
208.889984131,163.65
209.19291687,166.725
209.495849609,168.725
209.798751831,167.975
210.101654053,164.35
210.404556274,168.825
210.707427979,165.675
211.010269165,175.925
211.31312561,170.925
211.615982056,171.525
211.918807983,168.8
212.221618652,166.275
212.524429321,163.4
212.827224731,171.375
213.130004883,167.025
213.432769775,167.925
213.735534668,165.3
214.038269043,169.65
214.341003418,166.0
214.643737793,172.8
214.946456909,173.525
215.249145508,174.4
215.551834106,176.075
215.854507446,171.95
216.157165527,171.875
216.45980835,174.075
216.762451172,181.725
217.065078735,178.95
217.36769104,175.8
217.670303345,178.525
217.972885132,180.05
218.275466919,183.15
218.578048706,175.225
218.880599976,184.25
219.183120728,184.075
219.485656738,186.875
219.788192749,194.15
220.090682983,209.475
220.393188477,216.225
220.695663452,242.375
220.998138428,261.175
221.300582886,290.2
221.603042603,308.025
221.905487061,340.5
222.207901001,372.075
222.510299683,413.975
222.812728882,449.925
223.115097046,501.05
223.41746521,547.725
223.719848633,596.125
224.022171021,625.325
224.324508667,684.0
224.626846313,735.8
224.929168701,778.85
225.231460571,831.8
225.533737183,865.55
225.836013794,918.725
226.138290405,960.9
226.440536499,989.5
226.742767334,1041.5
227.044998169,1053.9
227.347213745,1103.375
227.649429321,1138.35
227.951629639,1152.175
228.253799438,1174.15
228.555953979,1197.525
228.858123779,1207.675
229.160263062,1222.8
229.462371826,1247.425
229.764511108,1255.725
230.066619873,1263.4
230.36869812,1286.8
230.670776367,1287.275
230.972854614,1291.975
231.274902344,1304.775
231.576950073,1316.625
231.878967285,1328.95
232.180999756,1344.0
232.48298645,1354.175
232.784988403,1378.85
233.086975098,1380.6
233.388946533,1392.975
233.69090271,1389.8
233.992858887,1409.875
234.294769287,1404.0
234.596694946,1390.775
234.898605347,1417.275
235.200500488,1425.325
235.502380371,1423.4
235.804244995,1420.3
236.106109619,1409.05
236.407958984,1408.15
236.709777832,1406.2
237.011581421,1404.875
237.313400269,1393.75
237.615203857,1395.675
237.916976929,1387.075
238.21875,1379.95
238.520507812,1382.175
238.822250366,1381.725
239.12399292,1367.95
239.425704956,1364.1
239.727401733,1348.55
240.02911377,1362.25
240.330780029,1347.75
240.632446289,1339.675
240.93409729,1356.225
241.23576355,1353.525
241.537384033,1345.55
241.839004517,1346.875
242.140594482,1347.175
242.442199707,1356.575
242.743774414,1351.075
243.045333862,1354.0
243.346923828,1351.05
243.648452759,1348.025
243.949966431,1354.5
244.251495361,1363.325
244.552993774,1368.55
244.854492188,1354.45
245.155975342,1362.5
245.457443237,1356.05
245.758880615,1365.3
246.060333252,1358.475
246.36177063,1340.175
246.66317749,1349.95
246.964569092,1348.75
247.265945435,1349.225
247.567337036,1346.675
247.86869812,1360.575
248.170059204,1363.275
248.471389771,1366.3
248.772705078,1371.05
249.074035645,1390.875
249.375335693,1396.7
249.676620483,1415.475
249.977890015,1426.225
250.279159546,1457.5
250.58039856,1480.65
250.881637573,1501.925
251.182876587,1515.025
251.484069824,1536.55
251.785263062,1564.475
252.086456299,1606.5
252.387619019,1612.9
252.688781738,1652.225
252.989929199,1691.825
253.291061401,1718.25
253.592178345,1764.475
253.893280029,1793.75
254.194366455,1832.525
254.49546814,1846.825
254.796524048,1873.4
255.097579956,1910.375
255.398620605,1948.675
255.699645996,1987.15
256.000640869,2002.0
256.30166626,2038.625
256.602661133,2075.85
256.903656006,2085.7
257.204589844,2114.975
257.505523682,2135.75
257.80645752,2162.575
258.107391357,2188.4
258.408294678,2207.15
258.709228516,2222.325
259.010070801,2237.75
259.310943604,2245.2
259.611846924,2273.725
259.912658691,2277.7
260.213500977,2292.25
260.514343262,2295.675
260.815124512,2298.825
261.115936279,2332.75
261.416717529,2332.3
261.717468262,2348.55
262.018218994,2357.25
262.318969727,2379.9
262.619689941,2422.225
262.920410156,2458.75
263.221130371,2502.65
263.521789551,2532.3
263.822479248,2590.2
264.123138428,2636.5
264.42376709,2669.725
264.72442627,2678.075
265.025054932,2719.7
265.325622559,2737.55
265.626251221,2768.0
265.926818848,2782.3
266.227386475,2771.15
266.527954102,2779.15
266.828460693,2834.0
267.12902832,2803.55
267.429534912,2799.725
267.730010986,2806.1
268.030517578,2808.175
268.330993652,2829.025
268.631439209,2818.5
268.931915283,2835.8
269.232299805,2832.475
269.532745361,2842.65
269.8331604,2868.15
270.133544922,2874.225
270.433929443,2880.3
270.734313965,2898.85
271.034637451,2915.625
271.334991455,2923.625
271.635314941,2968.1
271.935638428,2994.275
272.235931396,3043.175
272.536254883,3078.4
272.836486816,3137.25
273.136749268,3188.7
273.437011719,3279.5
273.737213135,3340.8
274.037445068,3404.775
274.337677002,3465.7
274.6378479,3555.725
274.938049316,3643.9
275.238220215,3727.4
275.538360596,3816.275
275.838500977,3866.7
276.138641357,3983.9
276.438751221,4045.7
276.738830566,4136.4
277.03894043,4183.55
277.338989258,4301.15
277.639038086,4370.2
277.939056396,4415.125
278.239105225,4501.35
278.539093018,4568.1
278.839141846,4641.8
279.139129639,4698.05
279.439086914,4778.975
279.739044189,4846.625
280.039001465,4928.2
280.338928223,4960.55
280.63885498,5028.375
280.938781738,5086.25
281.238647461,5158.575
281.538513184,5189.225
281.838409424,5229.45
282.138244629,5288.25
282.438079834,5329.45
282.737945557,5357.0
283.037719727,5410.325
283.337524414,5462.35
283.637298584,5490.6
283.937072754,5554.2
284.236816406,5590.45
284.536560059,5578.425
284.836303711,5619.65
285.136016846,5679.3
285.43572998,5722.625
285.735412598,5719.6
286.035064697,5766.925
286.334747314,5819.475
286.634368896,5832.65
286.933990479,5826.625
287.233642578,5794.5
287.533203125,5825.75
287.832824707,5800.525
288.132385254,5754.75
288.431945801,5657.8
288.731506348,5605.275
289.031036377,5500.075
289.330566406,5417.4
289.630065918,5438.825
289.92956543,5422.2
290.229034424,5513.7
290.528503418,5659.625
290.827941895,5791.1
291.127380371,5926.575
291.42678833,6026.8
291.726226807,6145.8
292.025604248,6193.25
292.324981689,6258.75
292.624359131,6251.775
292.923736572,6271.05
293.223052979,6325.95
293.522369385,6335.85
293.821685791,6315.725
294.12097168,6310.3
294.420257568,6279.8
294.719543457,6298.6
295.018768311,6300.9
295.318023682,6253.1
295.617248535,6214.925
295.916442871,6191.55
296.215667725,6138.5
296.514862061,6051.775
296.813995361,5873.3
297.11315918,5717.45
297.412322998,5646.15
297.711425781,5586.925
298.010559082,5728.425
298.309631348,5919.05
298.608734131,6096.175
298.907806396,6276.65
299.206848145,6378.125
299.505889893,6444.95
299.804901123,6528.5
300.103912354,6600.625
300.402954102,6683.425
300.701904297,6724.75
301.00088501,6783.2
301.299835205,6834.325
301.5987854,6881.85
301.897735596,6935.35
302.196624756,6991.025
302.495513916,7078.35
302.794403076,7092.0
303.093292236,7134.95
303.392120361,7204.0
303.690979004,7263.1
303.989837646,7298.875
304.288604736,7347.875
304.587402344,7349.525
304.886199951,7384.75
305.184967041,7415.15
305.483734131,7475.975
305.782501221,7498.075
306.081176758,7505.275
306.37991333,7533.65
306.678619385,7539.7
306.977294922,7554.975
307.275970459,7570.8
307.574645996,7589.525
307.873260498,7562.0
308.171875,7590.45
308.470489502,7594.95
308.769104004,7517.7
309.067687988,7532.0
309.366241455,7532.8
309.664794922,7505.425
309.963348389,7529.1
310.261871338,7512.55
310.560394287,7526.775
310.858856201,7536.225
311.157348633,7568.225
311.455810547,7566.675
311.754272461,7575.225
312.052703857,7653.8
312.351135254,7653.925
312.649536133,7646.475
312.947937012,7638.675
313.246307373,7676.825
313.544647217,7694.75
313.843017578,7640.35
314.141387939,7626.025
314.439697266,7663.775
314.738006592,7564.2
315.036315918,7528.375
315.334564209,7474.3
315.6328125,7397.9
315.931091309,7366.85
316.229309082,7248.075
316.527526855,7166.05
316.825744629,7123.7
317.123901367,7033.5
317.422088623,6984.075
317.720245361,7003.175
318.0184021,7004.0
318.316497803,7027.8
318.614654541,7089.025
318.912750244,7134.3
319.21081543,7128.9
319.50894165,7169.975
319.806945801,7196.8
320.104980469,7186.925
320.403045654,7169.275
320.701049805,7117.55
320.999023438,7127.075
321.297027588,7063.7
321.595001221,7076.8
321.892913818,7045.325
322.190887451,6983.7
322.488830566,6921.225
322.786712646,6912.125
323.084625244,6848.2
323.382507324,6814.15
323.680358887,6752.225
323.978210449,6668.825
324.276062012,6639.725
324.573852539,6596.55
324.871643066,6531.325
325.169464111,6497.55
325.467224121,6447.95
325.764984131,6397.1
326.062744141,6320.3
326.360473633,6269.9
326.658203125,6213.375
326.955871582,6151.5
327.253570557,6093.7
327.551239014,6053.55
327.848907471,5982.675
328.146514893,5933.7
328.444152832,5892.5
328.741790771,5843.7
329.039367676,5766.475
329.336914062,5753.4
329.634521484,5694.25
329.932067871,5670.175
330.229553223,5586.9
330.527160645,5551.775
330.824615479,5505.575
331.12210083,5443.475
331.419586182,5348.0
331.717041016,5308.425
332.014465332,5242.5
332.311920166,5214.775
332.609313965,5155.5
332.906707764,5165.75
333.204101562,5129.075
333.501495361,5138.25
333.798828125,5178.05
334.096160889,5226.025
334.39352417,5273.325
334.690795898,5312.0
334.988098145,5350.0
335.285400391,5392.225
335.582641602,5403.825
335.879882812,5429.05
336.177124023,5446.8
336.474334717,5511.45
336.77154541,5490.6
337.068725586,5526.375
337.365905762,5525.2
337.66305542,5538.525
337.960205078,5549.775
338.257324219,5586.6
338.554443359,5596.425
338.8515625,5588.275
339.148590088,5574.725
339.445648193,5609.3
339.742736816,5570.65
340.039764404,5586.2
340.336761475,5542.8
340.63381958,5496.1
340.930755615,5463.625
341.227722168,5408.3
341.524688721,5327.025
341.821624756,5284.95
342.118560791,5308.025
342.415496826,5396.35
342.712402344,5516.925
343.009246826,5640.375
343.306121826,5729.3
343.602966309,5789.325
343.899810791,5865.3
344.196624756,5933.975
344.493438721,5956.75
344.79019165,5986.75
345.086975098,6031.95
345.383758545,6059.7
345.680480957,6053.275
345.977203369,6063.475
346.273956299,6088.975
346.570617676,6104.425
346.86730957,6097.7
347.163970947,6094.2
347.460601807,6136.825
347.757232666,6146.1
348.053894043,6123.125
348.350463867,6088.925
348.647064209,6053.825
348.943634033,6049.725
349.24017334,6066.975
349.536712646,5999.05
349.833251953,6000.55
350.129760742,6010.55
350.426208496,6007.675
350.722747803,5963.425
351.019195557,5957.925
351.315612793,5897.25
351.612060547,5872.025
351.908508301,5841.7
352.204864502,5790.675
352.501281738,5746.925
352.797637939,5697.225
353.093963623,5642.1
353.390319824,5574.425
353.686645508,5493.425
353.982940674,5438.25
354.27923584,5427.0
354.575531006,5368.025
354.871765137,5351.3
355.167999268,5351.975
355.464233398,5351.1
355.760437012,5365.4
356.056640625,5346.025
356.352813721,5368.925
356.648956299,5359.225
356.945129395,5378.625
357.241271973,5356.675
357.537384033,5376.425
357.833496094,5342.375
358.129577637,5316.6
358.425628662,5291.375
358.721679688,5277.025
359.017730713,5265.5
359.313720703,5227.725
359.609710693,5192.225
359.905761719,5148.25
360.201721191,5116.1
360.497650146,5055.7
360.793609619,5052.125
361.089538574,4968.85
361.385437012,4891.9
361.681365967,4870.075
361.977233887,4838.525
362.273071289,4769.2
362.568908691,4674.35
362.864746094,4605.675
363.160552979,4463.575
363.456359863,4337.6
363.752166748,4194.1
364.047912598,4128.4
364.343658447,4088.1
364.639434814,4138.575
364.935119629,4162.5
365.230834961,4211.6
365.526550293,4248.6
365.822174072,4255.7
366.117858887,4286.45
366.413482666,4295.95
366.709075928,4347.775
367.004730225,4241.975
367.300292969,4241.875
367.595855713,4288.3
367.891448975,4178.3
368.186981201,4096.65
368.482513428,4074.775
368.778015137,4071.8
369.073547363,4041.575
369.36895752,4032.0
369.664428711,3951.875
369.95993042,3864.35
370.255310059,3798.225
370.550720215,3807.475
370.846160889,3766.75
371.14151001,3731.525
371.436859131,3702.15
371.73223877,3673.75
372.027557373,3664.875
372.322875977,3623.25
372.618164062,3590.6
372.913482666,3558.05
373.208709717,3532.875
373.503967285,3488.925
373.799194336,3455.125
374.094421387,3450.625
374.389648438,3436.975
374.684844971,3422.425
374.979980469,3450.475
375.275146484,3467.4
375.570281982,3499.475
375.865386963,3498.625
376.160522461,3438.725
376.455596924,3457.125
376.750640869,3540.425
377.045715332,3527.2
377.340759277,3569.45
377.635772705,3644.8
377.93081665,3658.175
378.225769043,3718.25
378.520751953,3765.65
378.815734863,3727.0
379.110656738,3891.45
379.405548096,4025.125
379.700500488,3890.075
379.995391846,3707.475
380.290252686,3752.925
380.585083008,3846.55
380.879974365,3876.05
381.17477417,3801.4
381.469543457,3763.45
381.764404297,3745.775
382.059143066,3765.55
382.353912354,3837.2
382.648651123,3918.325
382.943389893,3902.75
383.238067627,3754.05
383.532775879,3756.075
383.827484131,3707.825
384.12210083,3707.525
384.416778564,3656.125
384.711425781,3562.2
385.006011963,3605.95
385.300628662,3585.925
385.595184326,3647.45
385.88973999,3743.225
386.184295654,3834.825
386.478820801,3896.075
386.77331543,3981.15
387.067840576,4070.125
387.362335205,4150.625
387.656768799,4206.425
387.951202393,4256.35
388.245635986,4310.375
388.540039062,4396.75
388.834472656,4445.95
389.128875732,4325.1
389.423187256,4142.35
389.717559814,4119.25
390.011871338,4204.15
390.306182861,4227.775
390.600463867,4244.825
390.894775391,4289.45
391.189025879,4344.425
391.48324585,4312.375
391.777526855,4373.1
392.071685791,4550.55
392.365875244,4645.475
392.660064697,4699.8
392.95425415,5018.775
393.248382568,4989.325
393.542510986,4560.4
393.836608887,4400.55
394.130706787,4420.675
394.424804688,4353.525
394.71887207,4464.0
395.012878418,4450.175
395.306915283,4345.25
395.600921631,4308.275
395.894927979,4274.7
396.188903809,4307.45
396.482879639,4326.8
396.776794434,4499.075
397.070739746,4449.725
397.364654541,4477.75
397.658538818,4845.75
397.952423096,4847.9
398.246307373,4830.25
398.540100098,5300.125
398.833953857,5182.35
399.127746582,4748.25
399.421508789,4758.425
399.715301514,4697.8
400.009063721,4616.3
400.30279541,4484.025
400.596496582,4408.85
400.890258789,4574.625
401.183929443,4641.0
401.47756958,4533.05
401.771240234,4322.675
402.064880371,4343.075
402.35848999,4389.375
402.652130127,4290.2
402.945678711,4371.975
403.239257812,4308.075
403.532775879,4261.025
403.82635498,4318.85
404.119842529,4248.125
404.413360596,4232.025
404.706848145,4282.4
405.000274658,4204.125
405.293762207,4272.55
405.587188721,4337.3
405.880584717,4202.2
406.17401123,4023.0
406.467407227,3863.9
406.760742188,3865.0
407.054107666,3869.45
407.347442627,3814.425
407.640716553,3796.325
407.934051514,3861.9
408.227325439,3927.75
408.520568848,4111.225
408.813842773,4192.975
409.107086182,4020.225
409.400238037,3962.9
409.693450928,3900.5
409.986633301,4016.575
410.279754639,3931.825
410.572875977,3668.5
410.86605835,3603.75
411.159118652,3640.9
411.452209473,3645.0
411.745330811,3512.825
412.038360596,3445.0
412.331390381,3476.075
412.624420166,3507.55
412.917388916,3421.95
413.210388184,3260.05
413.503387451,3245.1
413.796295166,3158.025
414.089233398,3005.025
414.382141113,2920.7
414.675048828,2928.475
414.967926025,2951.7
415.260803223,2914.575
415.55368042,2930.675
415.846466064,2891.575
416.139282227,2962.825
416.432098389,3063.45
416.724853516,3054.225
417.017608643,3012.85
417.31036377,3029.875
417.603088379,3140.025
417.895782471,3116.05
418.188476562,3084.125
418.481140137,3154.75
418.773803711,3190.725
419.066436768,3168.675
419.359039307,3250.8
419.651641846,3229.475
419.944244385,3240.8
420.236816406,3200.575
420.529327393,3379.025
420.821899414,3448.35
421.114379883,3379.5
421.406860352,3630.675
421.699371338,3822.875
421.991821289,3782.1
422.284240723,3600.575
422.576721191,3467.25
422.869110107,3375.025
423.161468506,3333.4
423.453857422,3370.075
423.74621582,3247.325
424.038543701,3149.8
424.330871582,3099.45
424.623168945,3041.15
424.915435791,3167.825
425.207702637,3125.625
425.499969482,3079.35
425.792205811,3035.15
426.084411621,2802.9
426.376617432,2870.525
426.668762207,2939.675
426.9609375,2820.55
427.253082275,2945.15
427.545196533,3315.925
427.837310791,3067.95
428.129425049,2805.375
428.421447754,2995.8
428.713531494,2980.5
429.005554199,2977.025
429.297576904,2993.025
429.589599609,3375.425
429.881561279,3647.725
430.173522949,3449.75
430.465484619,3420.8
430.757415771,3488.675
431.049316406,3288.425
431.341186523,3073.775
431.633117676,3002.575
431.924957275,2716.85
432.21673584,2618.825
432.508636475,2757.225
432.800415039,2770.725
433.092163086,2664.175
433.383972168,2658.15
433.675689697,3294.975
433.967437744,3722.7
434.259155273,2862.4
434.550872803,2608.475
434.842498779,2635.275
435.134185791,2754.05
435.425842285,2780.1
435.717437744,2679.175
436.009063721,2517.575
436.30065918,2652.7
436.592224121,2963.175
436.883758545,2783.325
437.175323486,2553.1
437.466827393,2528.125
437.758331299,2550.975
438.049804688,2557.15
438.341247559,2626.175
438.63269043,2701.3
438.924163818,2670.85
439.215515137,2641.975
439.50692749,2555.7
439.798309326,2558.075
440.089660645,2567.35
440.380981445,2483.775
440.672332764,2497.85
440.963623047,2718.3
441.254882812,3122.275
441.546173096,3304.35
441.837402344,3075.375
442.128631592,2908.9
442.41986084,2890.375
442.711029053,2765.0
443.002197266,2841.75
443.293365479,2993.25
443.584503174,3104.7
443.875610352,3100.2
444.166717529,2846.75
444.457794189,2888.35
444.748840332,2878.35
445.039916992,2855.475
445.330932617,2926.7
445.621948242,2790.9
445.912963867,2625.8
446.203918457,2843.625
446.494812012,3032.275
446.785827637,2848.175
447.076721191,2698.825
447.367584229,2686.8
447.658447266,2644.05
447.949371338,2693.95
448.24017334,2571.175
448.530975342,2516.725
448.821838379,2669.675
449.112579346,2734.225
449.40335083,2686.55
449.694152832,2718.725
449.984863281,2722.45
450.27557373,2642.2
450.56628418,2711.9
450.856933594,2719.7
451.147583008,2593.15
451.438262939,2486.975
451.728881836,2664.3
452.019470215,2758.65
452.310089111,2569.825
452.600646973,2597.975
452.891174316,2646.575
453.181732178,2483.025
453.472229004,2367.0
453.762695312,2473.475
454.053222656,2501.225
454.343658447,2382.225
454.634063721,2331.175
454.924530029,2479.675
455.214935303,2600.775
455.505279541,2658.7
455.795715332,2539.875
456.086029053,2363.75
456.376312256,2365.175
456.666687012,2385.4
456.956939697,2467.575
457.247192383,2481.7
457.537445068,2533.7
457.827728271,2697.575
458.117919922,2644.25
458.408081055,2574.9
458.698303223,2732.8
458.988433838,2665.375
459.278564453,2499.275
459.568725586,2764.5
459.858825684,2867.425
460.148864746,2588.3
460.438995361,2543.55
460.729034424,2601.225
461.019042969,2603.15
461.309082031,2779.55
461.599060059,2673.7
461.889007568,2260.075
462.179016113,2118.5
462.468933105,2309.875
462.75881958,2435.975
463.048736572,2189.175
463.338592529,2440.025
463.628448486,2753.425
463.918365479,2490.3
464.2081604,2643.45
464.497924805,2601.7
464.787780762,2713.55
465.077514648,3003.475
465.367218018,2643.375
465.657012939,2831.275
465.946685791,3195.05
466.236358643,2830.55
466.526092529,2363.325
466.815734863,2354.1
467.105316162,2294.65
467.394927979,2310.5
467.684570312,2192.4
467.974121094,2273.175
468.263671875,2345.825
468.553222656,2178.65
468.842773438,2088.175
469.132232666,1994.55
469.42175293,2012.625
469.711212158,1996.6
470.000640869,1873.7
470.290100098,1942.025
470.579498291,1972.775
470.868835449,1953.675
471.158294678,1934.2
471.447601318,1918.025
471.736907959,1972.025
472.026275635,2038.125
472.315551758,2015.025
472.604797363,2007.125
472.894104004,2130.95
473.183319092,2221.15
473.47253418,2207.75
473.761779785,2210.175
474.05090332,2151.6
474.340087891,2111.425
474.629241943,2046.125
474.918365479,2200.3
475.207427979,2440.75
475.496551514,2464.175
475.785614014,2228.125
476.074645996,2054.175
476.363708496,2132.0
476.652679443,2258.1
476.941650391,2085.425
477.230682373,1953.575
477.519622803,1961.425
477.808502197,2096.0
478.097412109,2333.3
478.386352539,2286.075
478.675201416,2058.3
478.964050293,1955.55
479.25289917,2120.475
479.541717529,2175.625
479.830474854,2031.475
480.11932373,2347.525
480.408050537,2496.95
480.696777344,2158.725
480.985534668,2044.15
481.274200439,2118.55
481.562866211,2345.475
481.851593018,2364.25
482.140197754,2305.125
482.428833008,2174.425
482.717468262,1984.225
483.006011963,2013.825
483.294586182,2125.1
483.5831604,2155.575
483.871673584,2033.725
484.16015625,2165.975
484.448699951,2374.925
484.7371521,2419.8
485.02557373,2406.85
485.314025879,2168.65
485.602416992,3363.05
485.890777588,11988.125
486.179199219,10657.925
486.467559814,2853.4
486.755859375,2078.275
487.044219971,2399.6
487.332519531,2583.675
487.620758057,2213.55
487.908966064,1985.8
488.197265625,1809.75
488.485473633,1724.525
488.773651123,1817.8
489.061859131,1817.825
489.350006104,1780.25
489.638122559,1729.875
489.926300049,1748.3
490.214355469,1697.35
490.502441406,1648.975
490.790527344,1591.6
491.078552246,1758.875
491.366546631,1758.975
491.654602051,1545.875
491.942565918,1620.1
492.230499268,1653.375
492.518493652,1622.275
492.806396484,1649.7
493.094268799,1573.85
493.382202148,1609.625
493.670074463,1716.125
493.957885742,1572.125
494.245727539,1559.45
494.533508301,1709.025
494.821289062,1600.225
495.109100342,1473.3
495.396850586,1428.625
495.684539795,1389.775
495.972290039,1584.275
496.25994873,1888.725
496.547607422,1890.15
496.835296631,1732.25
497.122894287,1434.15
497.410522461,1380.825
497.6980896,1381.0
497.985687256,1356.775
498.273223877,1439.475
498.560760498,1500.95
498.848266602,1512.75
499.135772705,1495.65
499.423217773,1533.925
499.710693359,1620.1
499.998138428,1546.775
500.285522461,1410.275
500.572937012,1356.425
500.860290527,1398.4
501.147644043,1484.25
501.434997559,1677.3
501.722290039,1567.05
502.00958252,1362.65
502.296875,1597.525
502.584106445,1581.55
502.871337891,1424.675
503.158599854,1494.275
503.445770264,1563.575
503.732910156,1535.675
504.020141602,1375.65
504.307220459,1364.575
504.594329834,1391.5
504.881469727,1332.3
505.168518066,1391.825
505.455535889,1455.225
505.742614746,1346.725
506.029632568,1287.4
506.316589355,1453.275
506.603637695,1529.25
506.890563965,1358.075
507.177459717,1209.625
507.464385986,1136.825
507.751312256,1336.775
508.038146973,1395.3
508.325012207,1282.2
508.611877441,1335.675
508.898681641,1337.45
509.185424805,1200.925
509.472259521,1162.85
509.759002686,1237.175
510.045715332,1260.0
510.332458496,1220.275
510.619140625,1273.2
510.905761719,1202.625
511.192504883,1180.8
511.479095459,1221.0
511.765686035,1178.225
512.052307129,1111.125
512.338928223,1071.425
512.625427246,1112.9
512.91204834,1168.275
513.198486328,1146.125
513.484985352,1118.2
513.77142334,1054.875
514.057922363,1095.05
514.344299316,1095.725
514.63079834,1061.125
514.917175293,1040.25
515.203552246,959.6
515.489868164,941.575
515.776245117,1054.275
516.0625,1077.325
516.348815918,1008.125
516.635070801,1037.975
516.921325684,1086.975
517.207580566,1025.775
517.493774414,945.625
517.779968262,955.45
518.066101074,984.45
518.352294922,948.625
518.638366699,946.225
518.924499512,1021.925
519.210632324,1085.6
519.496643066,1059.0
519.782714844,967.25
520.068786621,939.5
520.354736328,906.725
520.640686035,869.075
520.926757812,916.8
521.212646484,974.65
521.498535156,979.725
521.784484863,929.9
522.0703125,875.075
522.356262207,896.025
522.642089844,962.15
522.927856445,954.75
523.213684082,950.45
523.499511719,937.95
523.78527832,961.1
524.070983887,1020.375
524.356750488,1000.075
524.64239502,972.6
524.928039551,958.875
525.213806152,972.925
525.499389648,965.575
525.784973145,985.875
526.070617676,1029.075
526.356140137,1003.65
526.641723633,1001.725
526.927307129,1055.725
527.212768555,1066.45
527.498291016,1040.625
527.783752441,1044.3
528.069213867,1030.8
528.354675293,1041.925
528.640014648,1186.65
528.925476074,1249.45
529.21081543,1174.925
529.496154785,1156.225
529.781555176,1117.8
530.066833496,1150.6
530.352050781,1160.975
530.637390137,1143.975
530.922607422,1142.05
531.207824707,1146.1
531.493041992,1135.8
531.778198242,1204.625
532.063354492,1174.4
532.348571777,1128.1
532.633666992,1146.075
532.918762207,1209.35
533.203857422,1281.7
533.488891602,1311.0
533.773925781,1266.35
534.059020996,1242.925
534.343933105,1261.15
534.628967285,1246.05
534.91394043,1263.2
535.198852539,1277.25
535.483703613,1252.95
535.768676758,1196.825
536.053527832,1207.05
536.338317871,1166.875
536.62322998,1119.55
536.90802002,1089.625
537.192810059,1115.0
537.477539062,1175.375
537.762329102,1224.425
538.047058105,1248.425
538.331726074,1281.75
538.616455078,1263.75
538.901123047,1239.55
539.18572998,1289.2
539.470397949,1287.25
539.755004883,1277.875
540.039550781,1245.6
540.32409668,1210.675
540.608703613,1247.1
540.893188477,1336.2
541.17767334,1354.875
541.462158203,1339.0
541.746643066,1296.5
542.031066895,1336.625
542.315429688,1380.45
542.59979248,1379.125
542.884216309,1361.475
543.168579102,1350.075
543.452941895,1350.975
543.737243652,1400.475
544.021484375,1451.05
544.305725098,1445.425
544.590026855,1423.225
544.874267578,1427.575
545.158447266,1496.275
545.442626953,1411.1
545.726806641,1324.35
546.010925293,1358.325
546.29510498,1387.25
546.579162598,1382.775
546.863220215,1405.725
547.147277832,1461.45
547.431335449,1540.7
547.715332031,1593.55
547.999328613,1683.15
548.283325195,1705.0
548.567260742,1571.2
548.851135254,1555.075
549.135070801,1513.9
549.419006348,1442.325
549.702819824,1541.5
549.986755371,1578.1
550.270507812,1559.375
550.554321289,1587.35
550.83807373,1605.85
551.121826172,1566.075
551.405517578,1582.8
551.689331055,1680.325
551.973022461,1879.475
552.256652832,1936.05
552.540344238,1851.4
552.823974609,1827.075
553.107543945,1821.0
553.391174316,1861.45
553.674743652,1929.125
553.958251953,1913.875
554.241821289,1919.35
554.525268555,1866.0
554.808776855,1862.7
555.092285156,2041.125
555.375671387,2110.05
555.659057617,2100.725
555.942504883,2136.225
556.225891113,2157.4
556.509216309,2124.65
556.792541504,2055.35
557.075866699,2097.35
557.359130859,2151.5
557.64239502,2140.7
557.92565918,2210.925
558.208862305,2202.4
558.49206543,2135.8
558.77532959,2162.425
559.058410645,2195.55
559.341552734,2185.1
559.624694824,2232.75
559.907775879,2307.0
560.190856934,2409.025
560.473937988,2386.1
560.756896973,2426.475
561.039978027,2457.475
561.322937012,2414.475
561.605895996,2415.0
561.88885498,2371.825
562.171813965,2381.85
562.454650879,2370.8
562.737548828,2404.175
563.020446777,2470.425
563.303283691,2487.25
563.58605957,2527.85
563.868896484,2523.95
564.151672363,2561.675
564.434387207,2597.3
564.717163086,2569.15
564.99987793,2617.85
565.282531738,2668.6
565.565185547,2607.15
565.847839355,2607.875
566.130432129,2716.85
566.413085938,2691.875
566.695678711,2708.55
566.978149414,2815.425
567.260681152,2927.65
567.543273926,2982.425
567.825744629,2901.775
568.108154297,2940.75
568.390686035,3051.925
568.673095703,3164.8
568.955505371,3194.2
569.237854004,3235.125
569.520202637,3440.05
569.802490234,3630.725
570.084838867,3633.925
570.367126465,3474.775
570.649414062,3479.25
570.93170166,3809.25
571.213928223,3853.025
571.496154785,3638.2
571.778381348,3831.35
572.06048584,4067.025
572.342590332,3664.6
572.624755859,3362.925
572.906860352,3423.925
573.188903809,4022.475
573.470947266,4202.375
573.752990723,4027.825
574.03503418,4114.4
574.317016602,4438.4
574.598937988,4247.55
574.88092041,4140.325
575.162841797,4285.3
575.444763184,3958.65
575.726623535,3742.1
576.008483887,3796.275
576.290344238,4137.4
576.572143555,4318.925
576.853881836,4365.675
577.135681152,4300.575
577.417419434,4307.45
577.699157715,5075.6
577.980895996,5228.75
578.262573242,4651.25
578.544128418,4216.6
578.825866699,4170.475
579.107421875,3921.0
579.388977051,4063.075
579.670593262,4403.25
579.952148438,4258.65
580.233642578,4356.875
580.515197754,4466.425
580.796691895,4192.825
581.078125,4341.125
581.359619141,5657.35
581.640991211,5714.35
581.922363281,4924.375
582.203796387,5001.725
582.485107422,4657.7
582.766418457,4333.525
583.047790527,4186.35
583.329040527,4090.325
583.610290527,3975.275
583.891540527,4076.525
584.172790527,4345.875
584.453918457,4350.1
584.735107422,4399.7
585.016235352,4795.625
585.297363281,4757.2
585.578552246,4586.875
585.859619141,4546.925
586.140625,4328.9
586.421630859,4227.95
586.702697754,4253.325
586.983642578,4447.025
587.264648438,4611.4
587.545654297,4523.025
587.826477051,4499.725
588.107421875,4334.7
588.388305664,4350.125
588.669189453,4454.65
588.950012207,4319.1
589.230834961,4230.875
589.511657715,4298.125
589.792358398,4386.45
590.073120117,4381.975
590.353881836,4371.9
590.63458252,4396.425
590.915283203,4354.875
591.195922852,4334.25
591.4765625,4382.45
591.757202148,4423.525
592.037780762,4398.55
592.31829834,4400.15
592.598937988,4598.325
592.879394531,4723.55
593.159912109,4658.475
593.440429688,4617.2
593.720825195,4581.4
594.001281738,4571.4
594.281677246,4498.3
594.562072754,4518.7
594.842407227,4586.725
595.122802734,4647.95
595.403137207,4602.55
595.683410645,4597.625
595.963623047,4592.85
596.243896484,4540.2
596.524169922,4549.025
596.804382324,4563.875
597.084533691,4596.65
597.364746094,4622.15
597.644836426,4633.575
597.924987793,4630.1
598.205078125,4579.95
598.485107422,4622.4
598.765197754,4732.9
599.045227051,4779.15
599.325195312,4699.525
599.605224609,4655.225
599.885192871,4695.05
600.165100098,4723.975
600.445007324,4691.6
600.724914551,4683.15
601.004760742,4707.175
601.284667969,4710.8
601.56451416,4702.05
601.844238281,4703.9
602.124084473,4705.7
602.403808594,4721.2
602.683532715,4733.1
602.963256836,4732.375
603.242919922,4768.25
603.522583008,4791.725
603.802246094,4761.9
604.081848145,4749.3
604.36138916,4724.2
604.641052246,4746.725
604.920532227,4735.1
605.200073242,4772.5
605.479614258,4797.025
605.759094238,4828.725
606.038574219,4825.0
606.317932129,4759.7
606.597412109,4752.825
606.87677002,4758.85
607.15612793,4797.95
607.435546875,4812.7
607.714782715,4818.6
607.99407959,4780.875
608.273376465,4771.0
608.552612305,4794.95
608.831848145,4819.1
609.111083984,4806.625
609.390258789,4811.95
609.669433594,4789.425
609.948608398,4834.175
610.227722168,4835.9
610.506713867,4782.275
610.785888672,4814.875
611.064880371,4793.4
611.34387207,4817.75
611.622924805,4800.35
611.901916504,4823.175
612.180847168,4765.35
612.459777832,4777.575
612.738647461,4768.65
613.01751709,4747.35
613.296447754,4707.3
613.575317383,4689.075
613.854064941,4657.0
614.132873535,4597.075
614.411621094,4540.95
614.690368652,4491.0
614.969177246,4444.975
615.247802734,4370.625
615.526489258,4375.6
615.805175781,4277.725
616.08380127,4164.55
616.362365723,4088.0
616.640991211,4063.35
616.919555664,4012.85
617.198059082,4089.3
617.4765625,4348.875
617.755126953,4471.675
618.033569336,4499.325
618.311950684,4505.75
618.590454102,4493.375
618.868774414,4456.375
619.147155762,4487.55
619.425598145,4485.925
619.703857422,4476.375
619.982177734,4474.45
620.260498047,4496.025
620.538757324,4480.625
620.816955566,4455.65
621.095214844,4419.7
621.373413086,4419.725
621.651550293,4467.2
621.929748535,4503.7
622.207824707,4474.475
622.485900879,4490.45
622.764038086,4486.675
623.042053223,4522.0
623.320007324,4535.4
623.598083496,4550.075
623.876037598,4541.425
624.153991699,4547.775
624.432006836,4558.125
624.709838867,4559.8
624.987731934,4568.6
625.265563965,4548.05
625.543395996,4562.25
625.821228027,4632.85
626.098999023,4620.6
626.376831055,4671.2
626.654541016,4668.6
626.932250977,4702.45
627.209960938,4736.775
627.487670898,4740.05
627.765319824,4766.45
628.04296875,4753.25
628.320495605,4772.85
628.598083496,4772.85
628.875671387,4821.625
629.153259277,4828.775
629.430725098,4876.45
629.708251953,4874.4
629.985656738,4893.225
630.263122559,4930.075
630.540588379,4942.6
630.817932129,4966.225
631.095275879,4996.775
631.372680664,5023.075
631.649963379,5062.4
631.927246094,5082.1
632.204589844,5112.6
632.481811523,5140.95
632.759033203,5232.7
633.036254883,5254.25
633.313415527,5327.425
633.590576172,5348.45
633.867736816,5434.5
634.144836426,5495.175
634.421875,5525.85
634.698913574,5571.5
634.976013184,5629.975
635.252990723,5704.025
635.529968262,5716.8
635.807006836,5786.375
636.08392334,5769.8
636.360839844,5675.575
636.637756348,5599.9
636.914611816,5563.35
637.191467285,5553.9
637.468261719,5627.325
637.745056152,5560.775
638.021789551,5613.975
638.298583984,5617.875
638.575317383,5627.25
638.851989746,5643.75
639.12878418,5650.5
639.405395508,5630.575
639.682006836,5662.05
639.958618164,5666.5
640.235229492,5644.3
640.511779785,5666.8
640.788330078,5639.15
641.064880371,5631.9
641.341308594,5622.475
641.617797852,5629.75
641.894226074,5624.1
642.170654297,5636.725
642.44708252,5642.075
642.723388672,5612.225
642.999755859,5616.65
643.276123047,5630.175
643.552429199,5595.425
643.828674316,5599.325
644.104919434,5599.075
644.381164551,5563.65
644.657348633,5588.225
644.933532715,5524.625
645.209716797,5566.325
645.485839844,5554.325
645.761901855,5548.1
646.038024902,5538.85
646.314086914,5545.975
646.590087891,5532.35
646.866149902,5560.55
647.142150879,5490.2
647.41809082,5474.875
647.694030762,5495.6
647.969970703,5482.4
648.245788574,5486.4
648.521728516,5467.325
648.797546387,5458.225
649.073303223,5472.925
649.349182129,5443.8
649.624938965,5433.9
649.900634766,5435.225
650.176391602,5431.0
650.452087402,5414.175
650.727783203,5405.2
651.003479004,5418.45
651.279052734,5399.825
651.554626465,5390.3
651.83026123,5380.225
652.105773926,5396.625
652.381286621,5341.2
652.656860352,5332.4
652.932312012,5360.1
653.207763672,5371.925
653.483215332,5386.875
653.758605957,5373.55
654.033935547,5361.35
654.309326172,5359.825
654.584716797,5375.025
654.859985352,5354.425
655.135253906,5386.225
655.410583496,5380.325
655.685791016,6211.625
655.9609375,9695.75
656.236206055,9453.45
656.511291504,6227.825
656.786437988,5469.925
657.061645508,5383.05
657.336669922,5369.15
657.611694336,5373.45
657.886779785,5391.525
658.161804199,5383.3
658.436828613,5362.15
658.711791992,5371.775
658.986755371,5374.075
659.261657715,5378.875
659.536621094,5379.125
659.811401367,5359.8
660.086303711,5378.025
660.36114502,5365.2
660.635864258,5349.525
660.910644531,5393.175
661.185424805,5362.65
661.460205078,5417.1
661.734863281,5398.8
662.009521484,5370.375
662.284179688,5369.175
662.558776855,5424.8
662.833435059,5419.225
663.108032227,5410.2
663.382568359,5391.025
663.657043457,5428.975
663.93157959,5432.525
664.206054688,5408.5
664.48046875,5440.95
664.755004883,5457.5
665.02935791,5434.775
665.303710938,5432.975
665.578125,5464.7
665.852416992,5461.625
666.126708984,5447.5
666.401062012,5465.375
666.675292969,5490.175
666.949462891,5478.35
667.223754883,5467.95
667.497924805,5462.525
667.772094727,5484.275
668.046264648,5434.675
668.3203125,5511.775
668.594421387,5496.95
668.868469238,5506.05
669.14251709,5495.475
669.416503906,5509.975
669.690551758,5510.0
669.964477539,5504.925
670.23840332,5496.725
670.512329102,5503.975
670.786254883,5463.375
671.060058594,5517.525
671.333984375,5508.875
671.607788086,5511.0
671.881530762,5503.3
672.155334473,5521.675
672.429077148,5523.825
672.702758789,5508.85
672.97644043,5496.2
673.25012207,5504.775
673.523742676,5473.0
673.797302246,5491.075
674.070922852,5538.825
674.344482422,5532.25
674.618041992,5532.825
674.891601562,5483.725
675.165100098,5512.05
675.438476562,5503.625
675.711975098,5499.35
675.985412598,5487.15
676.258789062,5477.35
676.532165527,5503.125
676.805480957,5491.15
677.078796387,5502.9
677.352111816,5493.3
677.625366211,5497.325
677.898620605,5465.725
678.171875,5491.3
678.445007324,5467.375
678.718200684,5499.45
678.991394043,5478.225
679.264404297,5462.95
679.537536621,5485.25
679.81060791,5475.975
680.083679199,5480.95
680.356689453,5450.35
680.629699707,5460.25
680.902648926,5428.35
681.175598145,5485.1
681.448547363,5483.2
681.721435547,5437.075
681.99420166,5444.0
682.267150879,5423.075
682.539916992,5450.525
682.812744141,5413.6
683.085510254,5392.05
683.358215332,5421.525
683.63092041,5390.025
683.903625488,5385.725
684.176330566,5370.35
684.448913574,5361.25
684.721557617,5361.025
684.99420166,5400.125
685.266662598,5373.725
685.539245605,5357.85
685.811767578,5376.7
686.084289551,5389.2
686.356689453,5363.4
686.629150391,5407.325
686.901550293,5373.7
687.17401123,5385.75
687.446350098,5414.3
687.718688965,5386.275
687.990966797,5410.45
688.263305664,5437.425
688.535522461,5381.6
688.807739258,5389.9
689.079956055,5395.075
689.352172852,5401.6
689.624328613,5381.125
689.896484375,5393.625
690.168518066,5382.075
690.440612793,5397.225
690.71270752,5401.45
690.984741211,5400.225
691.256713867,5407.425
691.528747559,5374.175
691.800720215,5385.575
692.072631836,5383.375
692.344543457,5397.7
692.616394043,5390.225
692.888244629,5393.3
693.160095215,5415.15
693.431945801,5422.125
693.703674316,5368.675
693.975463867,5336.75
694.247131348,5387.925
694.518859863,5384.025
694.790588379,5382.1
695.062255859,5368.1
695.33380127,5348.0
695.60546875,5353.625
695.87701416,5343.9
696.148498535,5348.575
696.42010498,5377.2
696.691589355,5345.925
696.96307373,5375.35
697.234558105,5384.5
697.50592041,5360.925
697.777282715,5374.45
698.048706055,5363.95
698.320068359,5410.575
698.591308594,5358.65
698.862670898,5341.675
699.133972168,5371.45
699.405151367,5341.05
699.676391602,5381.525
699.947570801,5336.6
700.21875,5358.45
700.489868164,5322.05
700.761047363,5317.8
701.032104492,5353.275
701.303100586,5298.325
701.57421875,5335.325
701.845214844,5327.75
702.116149902,5336.325
702.387207031,5329.025
702.65814209,5324.425
702.928955078,5319.925
703.199951172,5284.7
703.47076416,5290.45
703.741577148,5276.4
704.012451172,5305.1
704.28314209,5281.7
704.553955078,5270.85
704.824707031,5302.625
705.095397949,5305.875
705.366027832,5291.7
705.63671875,5288.8
705.907348633,5225.05
706.17791748,5274.9
706.448486328,5282.775
706.719055176,5270.45
706.989562988,5278.875
707.260131836,5269.025
707.530517578,5250.825
707.800964355,5267.675
708.071411133,5226.4
708.341796875,5235.6
708.612182617,5241.025
708.882446289,5192.05
709.152893066,5217.475
709.423156738,5200.475
709.693359375,5174.075
709.963623047,5188.9
710.233825684,5199.4
710.503967285,5176.7
710.774169922,5174.925
711.044311523,5156.175
711.31439209,5141.3
711.584533691,5164.475
711.854553223,5142.475
712.124572754,5154.95
712.39465332,5123.625
712.664611816,5143.45
712.934509277,5181.875
713.204467773,5150.6
713.474365234,5149.575
713.74420166,5120.45
714.014099121,5121.175
714.283874512,5113.775
714.553710938,5125.4
714.823486328,5114.25
715.093200684,5074.925
715.362915039,5093.1
715.632629395,5064.375
715.902282715,5078.675
716.171875,5033.625
716.441589355,5046.625
716.711181641,5023.775
716.980712891,5040.775
717.250244141,5026.05
717.519775391,5012.3
717.78918457,5030.75
718.058654785,5053.95
718.328125,5059.25
718.597473145,5011.475
718.866882324,5019.325
719.136230469,5024.775
719.405578613,5033.625
719.674865723,5023.325
719.944152832,5013.925
720.213439941,4978.05
720.48260498,4993.15
720.75177002,4983.325
721.020996094,4987.35
721.290100098,4989.5
721.559204102,4978.675
721.828308105,4983.7
722.097351074,4978.925
722.366455078,4962.35
722.635437012,4949.75
722.904418945,4916.55
723.173400879,4936.875
723.442321777,4936.875
723.711181641,4912.875
723.980102539,4943.65
724.248962402,4919.65
724.51776123,4918.275
724.786560059,4933.475
725.055358887,4916.925
725.324035645,4901.55
725.592834473,4905.25
725.86151123,4888.9
726.130187988,4895.725
726.398803711,4878.075
726.667419434,4881.75
726.935974121,4865.5
727.204528809,4848.2
727.473083496,4850.85
727.741638184,4830.75
728.010070801,4778.525
728.278564453,4796.375
728.546936035,4783.1
728.815368652,4759.775
729.08380127,4709.675
729.352111816,4694.675
729.620361328,4646.125
729.88873291,4654.275
730.156982422,4700.075
730.425231934,4692.05
730.693481445,4679.425
730.961669922,4700.475
731.229797363,4734.775
731.49798584,4738.425
731.766113281,4756.175
732.034118652,4793.575
732.302246094,4821.375
732.570251465,4818.7
732.838256836,4858.725
733.106262207,4900.225
733.374145508,4887.0
733.642089844,4933.45
733.909973145,4949.775
734.177856445,4993.525
734.445678711,5042.3
734.713562012,5090.3
734.981323242,5091.8
735.249084473,5113.275
735.516845703,5202.0
735.784545898,5228.6
736.052185059,5219.85
736.319885254,5278.175
736.587524414,5305.2
736.855102539,5325.4
737.122619629,5410.125
737.390197754,5416.65
737.657714844,5464.3
737.925170898,5512.6
738.192749023,5560.7
738.460144043,5591.825
738.727539062,5609.1
738.994995117,5665.55
739.262329102,5736.35
739.529663086,5755.425
739.79699707,5784.1
740.06427002,5803.175
740.331481934,5840.7
740.598754883,5892.175
740.865905762,5905.175
741.133056641,5991.575
741.40032959,5983.35
741.667358398,6021.4
741.934448242,6040.225
742.201599121,6080.525
742.468566895,6138.95
742.735534668,6164.15
743.002563477,6157.7
743.26953125,6165.45
743.536437988,6183.95
743.803405762,6239.325
744.0703125,6226.55
744.337097168,6276.675
744.604003906,6229.2
744.870727539,6292.8
745.137512207,6303.875
745.40423584,6310.275
745.670959473,6305.45
745.93762207,6339.875
746.204284668,6335.325
746.470947266,6345.375
746.737548828,6326.1
747.004089355,6335.025
747.270751953,6355.075
747.53717041,6376.225
747.803710938,6354.65
748.070251465,6340.875
748.336608887,6323.8
748.603027344,6317.525
748.869445801,6316.975
749.135803223,6331.5
749.402099609,6324.2
749.668457031,6351.675
749.934753418,6328.7
750.20098877,6330.375
750.467224121,6320.625
750.733459473,6312.0
750.999572754,6300.65
751.26574707,6253.825
751.531860352,6280.75
751.797912598,6261.7
752.064025879,6231.2
752.330078125,6225.975
752.596069336,6205.125
752.862060547,6223.25
753.127990723,6238.55
753.393920898,6184.425
753.659912109,6200.175
753.925720215,6237.4
754.19152832,6196.975
754.457397461,6154.775
754.723144531,6121.95
754.988952637,6136.35
755.254699707,6132.025
755.520385742,6142.65
755.786071777,6143.55
756.051696777,6152.825
756.317382812,6123.9
756.582946777,6107.65
756.848510742,6107.775
757.114074707,6104.0
757.379577637,6098.9
757.645080566,6122.0
757.910583496,6106.675
758.175964355,6064.325
758.441345215,6049.875
758.706848145,5996.3
758.972106934,5991.975
759.237426758,6016.45
759.502807617,6042.525
759.768005371,6031.8
760.03326416,5999.6
760.298522949,5972.7
760.563659668,5998.45
760.828857422,5976.325
761.093994141,5999.1
761.359130859,5949.35
761.624206543,5934.95
761.889282227,5927.85
762.15423584,5913.65
762.419250488,5915.45
762.684265137,5893.7
762.949157715,5899.1
763.214050293,5876.25
763.479003906,5884.725
763.743835449,5890.375
764.008666992,5871.875
764.2734375,5879.525
764.538208008,5882.825
764.802978516,5924.35
765.067687988,5876.425
765.332397461,5903.675
765.597045898,5884.525
765.861694336,5871.55
766.126342773,5836.925
766.390930176,5856.7
766.655395508,5840.025
766.920043945,5820.55
767.184509277,5799.0
767.448974609,5836.125
767.713439941,5814.7
767.977783203,5813.65
768.2421875,5858.95
768.506591797,5803.95
768.770874023,5851.8
769.03515625,5843.15
769.299499512,5838.725
769.563720703,5834.925
769.827941895,5809.175
770.092163086,5831.15
770.356323242,5817.5
770.620483398,5834.325
770.88458252,5837.55
771.148681641,5870.25
771.412719727,5843.375
771.676757812,5863.975
771.940734863,5850.15
772.204711914,5834.875
772.468688965,5813.925
772.73260498,5822.925
772.996459961,5832.15
773.260314941,5185.0
773.524169922,708.85
773.787963867,138.65
774.051696777,120.625
774.315551758,118.55
774.579223633,118.95
774.842895508,118.65
775.106567383,119.275
775.370239258,115.625
775.633789062,123.975
775.897399902,123.875
776.160949707,116.625
776.424499512,117.5
776.687988281,123.5
776.951477051,125.0
777.214904785,119.7
777.47833252,120.975
