191.299911499,103.175
191.603515625,103.65
191.907119751,97.2
192.210693359,103.45
192.514251709,97.5
192.817810059,103.775
193.121368408,103.55
193.42489624,106.075
193.728408813,99.05
194.031936646,100.075
194.33543396,94.575
194.638916016,112.575
194.94241333,98.425
195.245880127,97.45
195.549331665,95.525
195.852767944,98.4
196.156204224,171.65
196.459625244,166.7
196.763015747,168.475
197.066436768,172.875
197.369812012,166.575
197.673187256,173.725
197.9765625,164.375
198.279922485,168.2
198.583251953,165.875
198.886581421,167.125
199.18989563,175.5
199.493209839,170.875
199.79649353,163.05
200.09979248,173.375
200.403076172,168.125
200.706314087,168.675
201.009567261,169.9
201.312820435,172.875
201.616027832,162.45
201.919235229,154.225
202.222457886,161.2
202.525634766,168.575
202.828826904,159.05
203.132003784,161.275
203.435150146,160.975
203.738296509,159.175
204.041412354,159.725
204.344558716,165.85
204.647659302,166.3
204.950759888,167.675
205.253845215,167.05
205.556930542,162.25
205.859985352,162.1
206.163024902,162.25
206.466079712,162.325
206.769104004,168.575
207.072113037,166.8
207.375137329,162.125
207.678131104,161.725
207.981109619,164.5
208.284088135,162.975
208.587036133,165.375
208.889984131,167.575
209.19291687,166.175
209.495849609,166.825
209.798751831,165.725
210.101654053,169.5
210.404556274,165.075
210.707427979,162.65
211.010269165,172.975
211.31312561,170.025
211.615982056,170.6
211.918807983,171.0
212.221618652,166.6
212.524429321,161.925
212.827224731,173.3
213.130004883,170.775
213.432769775,168.525
213.735534668,165.35
214.038269043,171.2
214.341003418,166.45
214.643737793,172.2
214.946456909,176.0
215.249145508,175.4
215.551834106,177.525
215.854507446,175.4
216.157165527,175.95
216.45980835,175.6
216.762451172,177.525
217.065078735,179.4
217.36769104,175.275
217.670303345,182.325
217.972885132,185.75
218.275466919,181.5
218.578048706,178.325
218.880599976,187.925
219.183120728,187.675
219.485656738,187.15
219.788192749,192.025
220.090682983,203.55
220.393188477,214.55
220.695663452,238.225
220.998138428,251.475
221.300582886,279.1
221.603042603,298.35
221.905487061,326.7
222.207901001,358.525
222.510299683,398.4
222.812728882,442.45
223.115097046,487.175
223.41746521,531.075
223.719848633,573.2
224.022171021,619.175
224.324508667,665.15
224.626846313,724.7
224.929168701,763.725
225.231460571,817.35
225.533737183,856.575
225.836013794,898.375
226.138290405,936.475
226.440536499,981.15
226.742767334,1023.675
227.044998169,1057.45
227.347213745,1082.1
227.649429321,1119.875
227.951629639,1139.3
228.253799438,1168.375
228.555953979,1187.075
228.858123779,1200.725
229.160263062,1231.45
229.462371826,1226.65
229.764511108,1241.55
230.066619873,1247.525
230.36869812,1274.15
230.670776367,1265.95
230.972854614,1294.275
231.274902344,1293.1
231.576950073,1331.15
231.878967285,1321.15
232.180999756,1343.525
232.48298645,1359.95
232.784988403,1369.675
233.086975098,1377.825
233.388946533,1390.45
233.69090271,1409.125
233.992858887,1413.35
234.294769287,1404.3
234.596694946,1412.35
234.898605347,1429.625
235.200500488,1419.8
235.502380371,1421.325
235.804244995,1421.325
236.106109619,1406.675
236.407958984,1413.175
236.709777832,1398.225
237.011581421,1410.2
237.313400269,1387.6
237.615203857,1402.85
237.916976929,1386.95
238.21875,1390.5
238.520507812,1380.325
238.822250366,1386.425
239.12399292,1371.65
239.425704956,1378.725
239.727401733,1354.8
240.02911377,1359.7
240.330780029,1351.75
240.632446289,1356.625
240.93409729,1352.8
241.23576355,1343.275
241.537384033,1361.375
241.839004517,1356.5
242.140594482,1356.225
242.442199707,1364.5
242.743774414,1355.175
243.045333862,1365.1
243.346923828,1349.8
243.648452759,1362.925
243.949966431,1360.875
244.251495361,1372.525
244.552993774,1369.65
244.854492188,1368.9
245.155975342,1364.475
245.457443237,1368.075
245.758880615,1363.25
246.060333252,1359.6
246.36177063,1356.725
246.66317749,1348.3
246.964569092,1351.225
247.265945435,1352.075
247.567337036,1338.55
247.86869812,1358.525
248.170059204,1356.45
248.471389771,1361.45
248.772705078,1375.8
249.074035645,1394.225
249.375335693,1395.375
249.676620483,1425.125
249.977890015,1427.95
250.279159546,1458.75
250.58039856,1468.225
250.881637573,1485.925
251.182876587,1498.475
251.484069824,1542.075
251.785263062,1573.0
252.086456299,1601.625
252.387619019,1621.55
252.688781738,1652.325
252.989929199,1681.0
253.291061401,1721.15
253.592178345,1744.375
253.893280029,1792.35
254.194366455,1825.65
254.49546814,1848.9
254.796524048,1865.775
255.097579956,1918.6
255.398620605,1933.975
255.699645996,1959.525
256.000640869,1976.575
256.30166626,2028.625
256.602661133,2070.525
256.903656006,2084.075
257.204589844,2100.6
257.505523682,2127.875
257.80645752,2144.925
258.107391357,2169.75
258.408294678,2197.975
258.709228516,2207.0
259.010070801,2226.425
259.310943604,2250.075
259.611846924,2236.875
259.912658691,2265.6
260.213500977,2268.85
260.514343262,2276.95
260.815124512,2283.65
261.115936279,2293.275
261.416717529,2321.375
261.717468262,2328.0
262.018218994,2337.075
262.318969727,2364.9
262.619689941,2392.925
262.920410156,2440.35
263.221130371,2480.2
263.521789551,2503.85
263.822479248,2567.775
264.123138428,2596.55
264.42376709,2643.5
264.72442627,2660.85
265.025054932,2676.55
265.325622559,2717.925
265.626251221,2733.775
265.926818848,2754.05
266.227386475,2754.475
266.527954102,2751.675
266.828460693,2793.025
267.12902832,2762.825
267.429534912,2782.65
267.730010986,2783.225
268.030517578,2771.925
268.330993652,2777.2
268.631439209,2782.2
268.931915283,2802.075
269.232299805,2810.725
269.532745361,2825.325
269.8331604,2831.75
270.133544922,2823.625
270.433929443,2840.075
270.734313965,2856.85
271.034637451,2875.65
271.334991455,2894.375
271.635314941,2946.1
271.935638428,2953.775
272.235931396,3001.375
272.536254883,3052.45
272.836486816,3100.8
273.136749268,3142.3
273.437011719,3227.325
273.737213135,3289.6
274.037445068,3353.425
274.337677002,3431.55
274.6378479,3503.05
274.938049316,3607.85
275.238220215,3681.325
275.538360596,3771.8
275.838500977,3847.225
276.138641357,3964.925
276.438751221,4002.925
276.738830566,4073.85
277.03894043,4130.7
277.338989258,4243.45
277.639038086,4329.275
277.939056396,4369.4
278.239105225,4432.25
278.539093018,4517.075
278.839141846,4570.8
279.139129639,4658.3
279.439086914,4739.475
279.739044189,4779.625
280.039001465,4878.525
280.338928223,4898.95
280.63885498,4992.725
280.938781738,5051.275
281.238647461,5076.55
281.538513184,5128.275
281.838409424,5167.925
282.138244629,5221.5
282.438079834,5246.025
282.737945557,5322.95
283.037719727,5348.625
283.337524414,5402.875
283.637298584,5407.375
283.937072754,5450.175
284.236816406,5523.375
284.536560059,5513.05
284.836303711,5558.25
285.136016846,5625.4
285.43572998,5640.15
285.735412598,5674.05
286.035064697,5695.0
286.334747314,5763.025
286.634368896,5764.975
286.933990479,5758.925
287.233642578,5752.0
287.533203125,5762.15
287.832824707,5734.25
288.132385254,5699.3
288.431945801,5619.15
288.731506348,5535.8
289.031036377,5442.7
289.330566406,5367.625
289.630065918,5368.025
289.92956543,5357.15
290.229034424,5451.725
290.528503418,5592.45
290.827941895,5728.7
291.127380371,5849.775
291.42678833,5977.675
291.726226807,6084.125
292.025604248,6122.75
292.324981689,6183.1
292.624359131,6190.45
292.923736572,6212.625
293.223052979,6243.525
293.522369385,6259.925
293.821685791,6261.975
294.12097168,6243.125
294.420257568,6228.475
294.719543457,6227.2
295.018768311,6226.95
295.318023682,6171.9
295.617248535,6155.45
295.916442871,6100.275
296.215667725,6074.575
296.514862061,5987.5
296.813995361,5826.9
297.11315918,5674.175
297.412322998,5565.95
297.711425781,5544.05
298.010559082,5689.875
298.309631348,5858.125
298.608734131,6028.425
298.907806396,6179.325
299.206848145,6314.125
299.505889893,6365.025
299.804901123,6449.575
300.103912354,6538.475
300.402954102,6603.95
300.701904297,6664.1
301.00088501,6714.4
301.299835205,6771.075
301.5987854,6799.725
301.897735596,6889.575
302.196624756,6933.9
302.495513916,7011.375
302.794403076,7031.125
303.093292236,7073.3
303.392120361,7135.675
303.690979004,7186.5
303.989837646,7223.65
304.288604736,7312.2
304.587402344,7263.05
304.886199951,7324.175
305.184967041,7358.725
305.483734131,7396.15
305.782501221,7419.1
306.081176758,7417.9
306.37991333,7470.75
306.678619385,7466.75
306.977294922,7527.075
307.275970459,7530.625
307.574645996,7522.725
307.873260498,7507.275
308.171875,7542.375
308.470489502,7535.425
308.769104004,7460.525
309.067687988,7453.55
309.366241455,7470.8
309.664794922,7435.95
309.963348389,7457.8
310.261871338,7441.225
310.560394287,7456.25
310.858856201,7463.325
311.157348633,7511.85
311.455810547,7505.925
311.754272461,7534.475
312.052703857,7582.45
312.351135254,7593.075
312.649536133,7607.825
312.947937012,7578.7
313.246307373,7596.55
313.544647217,7615.825
313.843017578,7582.325
314.141387939,7567.225
314.439697266,7591.25
314.738006592,7510.7
315.036315918,7456.65
315.334564209,7406.85
315.6328125,7332.925
315.931091309,7299.125
316.229309082,7187.175
316.527526855,7105.35
316.825744629,7068.375
317.123901367,6975.6
317.422088623,6935.875
317.720245361,6941.875
318.0184021,6950.975
318.316497803,6983.9
318.614654541,7017.35
318.912750244,7094.6
319.21081543,7069.65
319.50894165,7114.7
319.806945801,7089.975
320.104980469,7097.6
320.403045654,7101.575
320.701049805,7105.475
320.999023438,7074.975
321.297027588,7031.975
321.595001221,7012.025
321.892913818,6985.75
322.190887451,6915.175
322.488830566,6884.675
322.786712646,6848.075
323.084625244,6788.975
323.382507324,6774.4
323.680358887,6698.225
323.978210449,6620.275
324.276062012,6571.85
324.573852539,6520.975
324.871643066,6479.575
325.169464111,6445.925
325.467224121,6389.375
325.764984131,6339.85
326.062744141,6279.4
326.360473633,6197.225
326.658203125,6164.7
326.955871582,6099.925
327.253570557,6035.3
327.551239014,5992.625
327.848907471,5944.95
328.146514893,5890.45
328.444152832,5826.475
328.741790771,5795.75
329.039367676,5741.9
329.336914062,5695.775
329.634521484,5642.6
329.932067871,5597.975
330.229553223,5533.05
330.527160645,5495.9
330.824615479,5448.8
331.12210083,5401.15
331.419586182,5286.85
331.717041016,5251.625
332.014465332,5176.45
332.311920166,5187.875
332.609313965,5125.075
332.906707764,5106.1
333.204101562,5108.8
333.501495361,5097.525
333.798828125,5146.575
334.096160889,5200.625
334.39352417,5241.275
334.690795898,5274.8
334.988098145,5304.2
335.285400391,5360.55
335.582641602,5360.3
335.879882812,5392.3
336.177124023,5392.7
336.474334717,5470.175
336.77154541,5455.775
337.068725586,5475.05
337.365905762,5488.775
337.66305542,5503.85
337.960205078,5518.4
338.257324219,5513.075
338.554443359,5538.1
338.8515625,5549.725
339.148590088,5554.75
339.445648193,5578.25
339.742736816,5544.075
340.039764404,5528.15
340.336761475,5509.825
340.63381958,5462.125
340.930755615,5426.65
341.227722168,5360.825
341.524688721,5280.675
341.821624756,5238.375
342.118560791,5302.5
342.415496826,5358.85
342.712402344,5459.6
343.009246826,5579.025
343.306121826,5697.025
343.602966309,5724.65
343.899810791,5809.9
344.196624756,5885.325
344.493438721,5893.8
344.79019165,5946.1
345.086975098,5972.6
345.383758545,6005.025
345.680480957,6010.925
345.977203369,6022.9
346.273956299,6089.0
346.570617676,6031.35
346.86730957,6063.875
347.163970947,6043.6
347.460601807,6066.85
347.757232666,6093.65
348.053894043,6084.05
348.350463867,6029.025
348.647064209,6018.825
348.943634033,6009.525
349.24017334,6032.675
349.536712646,5962.225
349.833251953,5960.875
350.129760742,5942.6
350.426208496,5937.425
350.722747803,5927.65
351.019195557,5888.85
351.315612793,5884.0
351.612060547,5828.225
351.908508301,5805.025
352.204864502,5740.225
352.501281738,5702.0
352.797637939,5665.775
353.093963623,5588.425
353.390319824,5527.125
353.686645508,5443.4
353.982940674,5393.55
354.27923584,5395.725
354.575531006,5333.3
354.871765137,5319.225
355.167999268,5296.975
355.464233398,5300.225
355.760437012,5310.75
356.056640625,5303.2
356.352813721,5319.15
356.648956299,5328.025
356.945129395,5342.1
357.241271973,5342.275
357.537384033,5325.6
357.833496094,5309.375
358.129577637,5289.525
358.425628662,5261.325
358.721679688,5247.125
359.017730713,5244.175
359.313720703,5164.95
359.609710693,5167.75
359.905761719,5105.375
360.201721191,5082.225
360.497650146,5022.175
360.793609619,5012.65
361.089538574,4933.1
361.385437012,4858.225
361.681365967,4833.55
361.977233887,4787.875
362.273071289,4745.325
362.568908691,4653.325
362.864746094,4540.575
363.160552979,4444.825
363.456359863,4289.65
363.752166748,4176.275
364.047912598,4101.975
364.343658447,4070.575
364.639434814,4092.9
364.935119629,4150.275
365.230834961,4191.35
365.526550293,4217.15
365.822174072,4220.925
366.117858887,4249.975
366.413482666,4288.4
366.709075928,4301.325
367.004730225,4226.825
367.300292969,4210.175
367.595855713,4250.675
367.891448975,4161.2
368.186981201,4074.0
368.482513428,4054.475
368.778015137,4034.95
369.073547363,4003.725
369.36895752,4012.2
369.664428711,3915.35
369.95993042,3830.875
370.255310059,3787.0
370.550720215,3760.85
370.846160889,3741.275
371.14151001,3699.675
371.436859131,3679.85
371.73223877,3671.325
372.027557373,3668.4
372.322875977,3593.0
372.618164062,3554.125
372.913482666,3522.75
373.208709717,3511.8
373.503967285,3455.7
373.799194336,3427.375
374.094421387,3434.1
374.389648438,3397.175
374.684844971,3394.375
374.979980469,3445.6
375.275146484,3437.45
375.570281982,3461.225
375.865386963,3462.325
376.160522461,3410.7
376.455596924,3437.35
376.750640869,3505.95
377.045715332,3523.45
377.340759277,3557.9
377.635772705,3599.525
377.93081665,3623.4
378.225769043,3689.55
378.520751953,3729.925
378.815734863,3700.0
379.110656738,3854.7
379.405548096,3981.95
379.700500488,3851.75
379.995391846,3664.425
380.290252686,3721.925
380.585083008,3813.95
380.879974365,3853.925
381.17477417,3778.45
381.469543457,3719.55
381.764404297,3707.925
382.059143066,3745.7
382.353912354,3828.725
382.648651123,3899.95
382.943389893,3875.875
383.238067627,3728.325
383.532775879,3722.5
383.827484131,3674.8
384.12210083,3674.375
384.416778564,3639.4
384.711425781,3545.4
385.006011963,3581.05
385.300628662,3552.2
385.595184326,3641.05
385.88973999,3718.625
386.184295654,3787.1
386.478820801,3881.775
386.77331543,3951.975
387.067840576,4055.75
387.362335205,4117.95
387.656768799,4206.425
387.951202393,4224.55
388.245635986,4297.05
388.540039062,4368.05
388.834472656,4412.375
389.128875732,4320.875
389.423187256,4131.725
389.717559814,4075.95
390.011871338,4184.95
390.306182861,4196.525
390.600463867,4218.6
390.894775391,4269.1
391.189025879,4302.6
391.48324585,4295.925
391.777526855,4337.15
392.071685791,4530.6
392.365875244,4608.275
392.660064697,4674.3
392.95425415,4960.525
393.248382568,4936.0
393.542510986,4523.8
393.836608887,4371.425
394.130706787,4388.7
394.424804688,4331.35
394.71887207,4445.8
395.012878418,4405.625
395.306915283,4307.875
395.600921631,4270.725
395.894927979,4228.175
396.188903809,4280.925
396.482879639,4285.075
396.776794434,4462.0
397.070739746,4426.85
397.364654541,4453.25
397.658538818,4795.525
397.952423096,4801.875
398.246307373,4780.15
398.540100098,5250.0
398.833953857,5151.35
399.127746582,4714.2
399.421508789,4739.025
399.715301514,4666.375
400.009063721,4587.7
400.30279541,4449.9
400.596496582,4399.6
400.890258789,4539.6
401.183929443,4606.225
401.47756958,4515.625
401.771240234,4292.575
402.064880371,4290.575
402.35848999,4342.55
402.652130127,4261.05
402.945678711,4329.1
403.239257812,4293.475
403.532775879,4228.275
403.82635498,4282.425
404.119842529,4199.725
404.413360596,4190.175
404.706848145,4237.6
405.000274658,4169.275
405.293762207,4257.225
405.587188721,4302.8
405.880584717,4153.625
406.17401123,3995.475
406.467407227,3827.65
406.760742188,3824.825
407.054107666,3852.875
407.347442627,3784.45
407.640716553,3787.325
407.934051514,3827.475
408.227325439,3909.575
408.520568848,4081.75
408.813842773,4164.475
409.107086182,3982.325
409.400238037,3935.175
409.693450928,3870.025
409.986633301,3977.675
410.279754639,3900.525
410.572875977,3650.2
410.86605835,3591.9
411.159118652,3601.925
411.452209473,3623.8
411.745330811,3492.15
412.038360596,3424.4
412.331390381,3448.05
412.624420166,3479.2
412.917388916,3401.25
413.210388184,3248.75
413.503387451,3233.6
413.796295166,3131.3
414.089233398,2989.85
414.382141113,2921.7
414.675048828,2881.175
414.967926025,2931.825
415.260803223,2869.75
415.55368042,2902.7
415.846466064,2859.475
416.139282227,2957.1
416.432098389,3037.6
416.724853516,3048.55
417.017608643,2995.275
417.31036377,3005.175
417.603088379,3122.15
417.895782471,3087.15
418.188476562,3057.6
418.481140137,3124.725
418.773803711,3165.5
419.066436768,3151.35
419.359039307,3215.95
419.651641846,3223.05
419.944244385,3243.6
420.236816406,3180.7
420.529327393,3362.95
420.821899414,3429.85
421.114379883,3371.425
421.406860352,3597.325
421.699371338,3774.2
421.991821289,3766.175
422.284240723,3576.3
422.576721191,3462.75
422.869110107,3347.35
423.161468506,3298.075
423.453857422,3329.775
423.74621582,3222.675
424.038543701,3098.35
424.330871582,3073.875
424.623168945,3026.175
424.915435791,3135.275
425.207702637,3118.55
425.499969482,3065.25
425.792205811,3023.975
426.084411621,2790.4
426.376617432,2861.1
426.668762207,2916.95
426.9609375,2810.5
427.253082275,2919.0
427.545196533,3277.675
427.837310791,3042.675
428.129425049,2790.05
428.421447754,2967.65
428.713531494,2970.775
429.005554199,2965.85
429.297576904,2976.625
429.589599609,3348.425
429.881561279,3626.975
430.173522949,3439.175
430.465484619,3379.025
430.757415771,3454.0
431.049316406,3255.75
431.341186523,3051.825
431.633117676,2960.875
431.924957275,2693.775
432.21673584,2597.05
432.508636475,2722.1
432.800415039,2758.4
433.092163086,2663.925
433.383972168,2642.55
433.675689697,3261.15
433.967437744,3697.225
434.259155273,2857.225
434.550872803,2579.05
434.842498779,2621.425
435.134185791,2734.3
435.425842285,2755.65
435.717437744,2667.875
436.009063721,2506.55
436.30065918,2634.725
436.592224121,2944.8
436.883758545,2770.8
437.175323486,2534.175
437.466827393,2512.675
437.758331299,2532.55
438.049804688,2537.375
438.341247559,2604.325
438.63269043,2663.075
438.924163818,2656.275
439.215515137,2631.925
439.50692749,2549.875
439.798309326,2559.7
440.089660645,2548.8
440.380981445,2458.85
440.672332764,2454.025
440.963623047,2720.0
441.254882812,3111.2
441.546173096,3264.875
441.837402344,3034.9
442.128631592,2881.4
442.41986084,2858.95
442.711029053,2756.375
443.002197266,2814.625
443.293365479,2974.95
443.584503174,3095.1
443.875610352,3052.825
444.166717529,2824.65
444.457794189,2884.9
444.748840332,2861.3
445.039916992,2835.725
445.330932617,2917.95
445.621948242,2777.0
445.912963867,2601.0
446.203918457,2808.025
446.494812012,3011.875
446.785827637,2830.225
447.076721191,2660.975
447.367584229,2642.95
447.658447266,2628.8
447.949371338,2674.2
448.24017334,2551.3
448.530975342,2504.35
448.821838379,2658.025
449.112579346,2722.725
449.40335083,2657.875
449.694152832,2684.4
449.984863281,2690.025
450.27557373,2629.8
450.56628418,2683.6
450.856933594,2698.7
451.147583008,2577.825
451.438262939,2470.775
451.728881836,2650.75
452.019470215,2737.75
452.310089111,2551.375
452.600646973,2570.325
452.891174316,2627.525
453.181732178,2459.525
453.472229004,2356.0
453.762695312,2455.025
454.053222656,2486.375
454.343658447,2365.275
454.634063721,2308.8
454.924530029,2474.35
455.214935303,2576.425
455.505279541,2642.725
455.795715332,2524.425
456.086029053,2347.675
456.376312256,2339.35
456.666687012,2366.475
456.956939697,2437.85
457.247192383,2457.775
457.537445068,2525.175
457.827728271,2680.975
458.117919922,2620.2
458.408081055,2567.425
458.698303223,2700.75
458.988433838,2659.525
459.278564453,2492.525
459.568725586,2745.1
459.858825684,2853.525
460.148864746,2561.65
460.438995361,2538.4
460.729034424,2592.175
461.019042969,2583.425
461.309082031,2756.525
461.599060059,2669.7
461.889007568,2255.825
462.179016113,2094.425
462.468933105,2309.4
462.75881958,2419.525
463.048736572,2190.8
463.338592529,2410.625
463.628448486,2726.675
463.918365479,2470.9
464.2081604,2607.975
464.497924805,2583.325
464.787780762,2694.85
465.077514648,2972.025
465.367218018,2621.975
465.657012939,2809.95
465.946685791,3176.2
466.236358643,2812.15
466.526092529,2356.225
466.815734863,2336.85
467.105316162,2267.15
467.394927979,2302.725
467.684570312,2191.825
467.974121094,2255.475
468.263671875,2353.4
468.553222656,2161.2
468.842773438,2066.85
469.132232666,1971.7
469.42175293,1993.825
469.711212158,1981.475
470.000640869,1861.55
470.290100098,1913.05
470.579498291,1956.75
470.868835449,1949.7
471.158294678,1905.55
471.447601318,1901.2
471.736907959,1960.65
472.026275635,2027.1
472.315551758,2005.075
472.604797363,1992.775
472.894104004,2115.375
473.183319092,2207.6
473.47253418,2214.45
473.761779785,2183.35
474.05090332,2132.425
474.340087891,2087.525
474.629241943,2038.425
474.918365479,2173.225
475.207427979,2435.425
475.496551514,2442.65
475.785614014,2211.475
476.074645996,2029.225
476.363708496,2124.45
476.652679443,2243.375
476.941650391,2079.125
477.230682373,1938.4
477.519622803,1938.9
477.808502197,2076.0
478.097412109,2316.6
478.386352539,2267.75
478.675201416,2040.125
478.964050293,1937.225
479.25289917,2099.775
479.541717529,2165.625
479.830474854,2018.475
480.11932373,2337.875
480.408050537,2481.025
480.696777344,2149.425
480.985534668,2020.325
481.274200439,2118.35
481.562866211,2326.4
481.851593018,2343.075
482.140197754,2298.8
482.428833008,2161.55
482.717468262,1971.1
483.006011963,2006.0
483.294586182,2112.9
483.5831604,2137.8
483.871673584,2014.825
484.16015625,2146.325
484.448699951,2355.6
484.7371521,2382.95
485.02557373,2384.625
485.314025879,2152.825
485.602416992,3341.825
485.890777588,11891.0
486.179199219,10622.05
486.467559814,2830.65
486.755859375,2065.25
487.044219971,2392.95
487.332519531,2563.5
487.620758057,2203.275
487.908966064,1972.975
488.197265625,1800.25
488.485473633,1713.15
488.773651123,1816.25
489.061859131,1810.275
489.350006104,1762.0
489.638122559,1712.85
489.926300049,1741.4
490.214355469,1680.725
490.502441406,1634.575
490.790527344,1573.6
491.078552246,1753.325
491.366546631,1752.45
491.654602051,1547.025
491.942565918,1610.775
492.230499268,1643.225
492.518493652,1608.775
492.806396484,1645.575
493.094268799,1562.7
493.382202148,1599.25
493.670074463,1703.1
493.957885742,1569.125
494.245727539,1557.825
494.533508301,1708.25
494.821289062,1605.225
495.109100342,1466.525
495.396850586,1428.575
495.684539795,1392.45
495.972290039,1577.9
496.25994873,1860.275
496.547607422,1872.725
496.835296631,1712.625
497.122894287,1439.95
497.410522461,1373.7
497.6980896,1365.775
497.985687256,1337.825
498.273223877,1419.8
498.560760498,1484.875
498.848266602,1512.05
499.135772705,1487.35
499.423217773,1528.675
499.710693359,1611.725
499.998138428,1561.425
500.285522461,1409.525
500.572937012,1341.975
500.860290527,1388.65
501.147644043,1476.25
501.434997559,1669.9
501.722290039,1556.125
502.00958252,1354.925
502.296875,1598.025
502.584106445,1572.3
502.871337891,1419.175
503.158599854,1482.975
503.445770264,1547.225
503.732910156,1521.625
504.020141602,1374.65
504.307220459,1355.675
504.594329834,1374.25
504.881469727,1323.3
505.168518066,1384.575
505.455535889,1443.75
505.742614746,1336.75
506.029632568,1270.975
506.316589355,1441.625
506.603637695,1506.3
506.890563965,1349.2
507.177459717,1205.375
507.464385986,1128.375
507.751312256,1329.625
508.038146973,1398.575
508.325012207,1286.375
508.611877441,1326.475
508.898681641,1330.275
509.185424805,1197.4
509.472259521,1163.75
509.759002686,1226.375
510.045715332,1259.35
510.332458496,1209.575
510.619140625,1261.4
510.905761719,1191.225
511.192504883,1166.95
511.479095459,1218.55
511.765686035,1170.6
512.052307129,1107.55
512.338928223,1058.25
512.625427246,1101.575
512.91204834,1156.8
513.198486328,1142.825
513.484985352,1104.85
513.77142334,1045.125
514.057922363,1085.075
514.344299316,1088.85
514.63079834,1044.7
514.917175293,1038.4
515.203552246,967.05
515.489868164,939.675
515.776245117,1032.775
516.0625,1072.7
516.348815918,1004.05
516.635070801,1028.925
516.921325684,1082.925
517.207580566,1023.425
517.493774414,942.175
517.779968262,952.4
518.066101074,988.125
518.352294922,934.95
518.638366699,956.2
518.924499512,1016.925
519.210632324,1086.2
519.496643066,1042.475
519.782714844,966.275
520.068786621,939.275
520.354736328,907.4
520.640686035,860.2
520.926757812,900.125
521.212646484,978.225
521.498535156,976.5
521.784484863,930.225
522.0703125,877.525
522.356262207,889.55
522.642089844,953.025
522.927856445,951.15
523.213684082,948.325
523.499511719,933.275
523.78527832,967.25
524.070983887,1012.725
524.356750488,990.95
524.64239502,962.375
524.928039551,953.5
525.213806152,973.15
525.499389648,959.95
525.784973145,986.175
526.070617676,1022.6
526.356140137,996.725
526.641723633,1000.525
526.927307129,1048.575
527.212768555,1049.2
527.498291016,1035.925
527.783752441,1036.75
528.069213867,1014.9
528.354675293,1036.95
528.640014648,1175.65
528.925476074,1231.7
529.21081543,1177.225
529.496154785,1155.125
529.781555176,1114.4
530.066833496,1137.3
530.352050781,1161.15
530.637390137,1134.325
530.922607422,1136.275
531.207824707,1136.325
531.493041992,1125.1
531.778198242,1189.575
532.063354492,1168.775
532.348571777,1120.35
532.633666992,1135.625
532.918762207,1202.9
533.203857422,1276.025
533.488891602,1298.925
533.773925781,1264.95
534.059020996,1227.725
534.343933105,1262.4
534.628967285,1238.025
534.91394043,1257.95
535.198852539,1257.6
535.483703613,1246.975
535.768676758,1187.275
536.053527832,1188.4
536.338317871,1158.675
536.62322998,1106.825
536.90802002,1086.525
537.192810059,1113.525
537.477539062,1164.625
537.762329102,1204.125
538.047058105,1239.85
538.331726074,1263.55
538.616455078,1256.75
538.901123047,1241.9
539.18572998,1281.325
539.470397949,1276.425
539.755004883,1275.6
540.039550781,1247.15
540.32409668,1208.9
540.608703613,1234.625
540.893188477,1321.125
541.17767334,1341.025
541.462158203,1338.9
541.746643066,1284.3
542.031066895,1333.325
542.315429688,1367.5
542.59979248,1367.45
542.884216309,1351.65
543.168579102,1337.025
543.452941895,1351.95
543.737243652,1390.7
544.021484375,1441.75
544.305725098,1423.675
544.590026855,1409.125
544.874267578,1419.925
545.158447266,1490.75
545.442626953,1407.525
545.726806641,1312.275
546.010925293,1349.65
546.29510498,1373.275
546.579162598,1357.375
546.863220215,1398.875
547.147277832,1456.675
547.431335449,1525.425
547.715332031,1581.725
547.999328613,1675.425
548.283325195,1678.2
548.567260742,1550.75
548.851135254,1531.6
549.135070801,1512.425
549.419006348,1424.475
549.702819824,1512.2
549.986755371,1577.3
550.270507812,1536.775
550.554321289,1587.375
550.83807373,1593.425
551.121826172,1553.575
551.405517578,1573.075
551.689331055,1659.7
551.973022461,1871.0
552.256652832,1920.9
552.540344238,1847.1
552.823974609,1817.95
553.107543945,1802.025
553.391174316,1845.05
553.674743652,1905.6
553.958251953,1908.65
554.241821289,1917.45
554.525268555,1873.625
554.808776855,1853.775
555.092285156,2024.275
555.375671387,2092.875
555.659057617,2093.375
555.942504883,2115.9
556.225891113,2153.525
556.509216309,2112.4
556.792541504,2042.925
557.075866699,2092.075
557.359130859,2130.3
557.64239502,2122.25
557.92565918,2206.825
558.208862305,2190.275
558.49206543,2124.925
558.77532959,2135.9
559.058410645,2180.35
559.341552734,2167.625
559.624694824,2213.15
559.907775879,2269.25
560.190856934,2396.875
560.473937988,2376.45
560.756896973,2397.225
561.039978027,2446.775
561.322937012,2408.525
561.605895996,2387.3
561.88885498,2357.05
562.171813965,2359.525
562.454650879,2353.6
562.737548828,2386.925
563.020446777,2460.575
563.303283691,2467.4
563.58605957,2497.25
563.868896484,2512.275
564.151672363,2550.75
564.434387207,2577.725
564.717163086,2556.225
564.99987793,2583.475
565.282531738,2639.175
565.565185547,2580.3
565.847839355,2591.5
566.130432129,2692.2
566.413085938,2674.65
566.695678711,2695.45
566.978149414,2787.975
567.260681152,2915.75
567.543273926,2977.175
567.825744629,2896.175
568.108154297,2913.925
568.390686035,3020.45
568.673095703,3116.85
568.955505371,3175.825
569.237854004,3192.0
569.520202637,3429.2
569.802490234,3601.575
570.084838867,3604.75
570.367126465,3458.55
570.649414062,3458.275
570.93170166,3761.85
571.213928223,3826.425
571.496154785,3616.65
571.778381348,3801.075
572.06048584,4033.475
572.342590332,3634.025
572.624755859,3327.1
572.906860352,3392.6
573.188903809,3982.825
573.470947266,4182.3
573.752990723,3962.125
574.03503418,4074.45
574.317016602,4395.625
574.598937988,4197.025
574.88092041,4107.875
575.162841797,4251.4
575.444763184,3953.05
575.726623535,3727.1
576.008483887,3767.5
576.290344238,4100.7
576.572143555,4272.95
576.853881836,4337.65
577.135681152,4257.4
577.417419434,4286.575
577.699157715,5037.975
577.980895996,5208.775
578.262573242,4625.7
578.544128418,4202.525
578.825866699,4143.875
579.107421875,3902.325
579.388977051,4050.65
579.670593262,4382.85
579.952148438,4210.925
580.233642578,4325.275
580.515197754,4424.875
580.796691895,4152.65
581.078125,4308.375
581.359619141,5594.375
581.640991211,5701.675
581.922363281,4911.275
582.203796387,4963.0
582.485107422,4621.5
582.766418457,4298.85
583.047790527,4153.6
583.329040527,4069.4
583.610290527,3942.925
583.891540527,4052.325
584.172790527,4317.875
584.453918457,4294.325
584.735107422,4375.15
585.016235352,4762.6
585.297363281,4743.375
585.578552246,4554.225
585.859619141,4517.625
586.140625,4304.25
586.421630859,4199.225
586.702697754,4240.175
586.983642578,4423.075
587.264648438,4581.55
587.545654297,4515.5
587.826477051,4474.875
588.107421875,4293.7
588.388305664,4335.675
588.669189453,4418.525
588.950012207,4292.975
589.230834961,4209.35
589.511657715,4274.15
589.792358398,4360.225
590.073120117,4359.225
590.353881836,4333.175
590.63458252,4363.7
590.915283203,4313.925
591.195922852,4310.025
591.4765625,4362.3
591.757202148,4391.275
592.037780762,4373.325
592.31829834,4375.725
592.598937988,4563.6
592.879394531,4698.6
593.159912109,4626.975
593.440429688,4589.475
593.720825195,4551.325
594.001281738,4547.85
594.281677246,4466.65
594.562072754,4474.675
594.842407227,4588.35
595.122802734,4597.525
595.403137207,4584.675
595.683410645,4562.425
595.963623047,4546.85
596.243896484,4518.675
596.524169922,4529.225
596.804382324,4550.075
597.084533691,4575.6
597.364746094,4581.85
597.644836426,4606.65
597.924987793,4591.85
598.205078125,4569.15
598.485107422,4596.125
598.765197754,4712.875
599.045227051,4759.725
599.325195312,4663.95
599.605224609,4632.825
599.885192871,4671.675
600.165100098,4713.525
600.445007324,4665.075
600.724914551,4656.2
601.004760742,4676.65
601.284667969,4703.325
601.56451416,4667.9
601.844238281,4677.875
602.124084473,4667.275
602.403808594,4670.05
602.683532715,4707.4
602.963256836,4680.475
603.242919922,4733.725
603.522583008,4771.025
603.802246094,4742.925
604.081848145,4705.05
604.36138916,4717.8
604.641052246,4723.725
604.920532227,4706.925
605.200073242,4748.325
605.479614258,4750.225
605.759094238,4792.95
606.038574219,4796.55
606.317932129,4734.025
606.597412109,4747.15
606.87677002,4753.925
607.15612793,4783.625
607.435546875,4771.15
607.714782715,4796.4
607.99407959,4780.925
608.273376465,4760.85
608.552612305,4779.5
608.831848145,4783.075
609.111083984,4784.0
609.390258789,4767.175
609.669433594,4751.775
609.948608398,4844.1
610.227722168,4814.525
610.506713867,4746.975
610.785888672,4767.1
611.064880371,4773.125
611.34387207,4781.075
611.622924805,4800.3
611.901916504,4779.925
612.180847168,4752.125
612.459777832,4742.2
612.738647461,4744.55
613.01751709,4729.475
613.296447754,4687.0
613.575317383,4677.3
613.854064941,4633.375
614.132873535,4557.3
614.411621094,4519.75
614.690368652,4474.7
614.969177246,4448.7
615.247802734,4352.45
615.526489258,4333.925
615.805175781,4255.2
616.08380127,4129.3
616.362365723,4073.3
616.640991211,4050.6
616.919555664,3994.65
617.198059082,4096.2
617.4765625,4326.7
617.755126953,4463.25
618.033569336,4481.95
618.311950684,4478.8
618.590454102,4488.25
618.868774414,4450.875
619.147155762,4451.4
619.425598145,4439.55
619.703857422,4457.3
619.982177734,4461.6
620.260498047,4459.9
620.538757324,4452.7
620.816955566,4419.275
621.095214844,4405.6
621.373413086,4402.55
621.651550293,4443.525
621.929748535,4469.5
622.207824707,4456.5
622.485900879,4474.625
622.764038086,4470.35
623.042053223,4509.1
623.320007324,4523.2
623.598083496,4528.25
623.876037598,4520.1
624.153991699,4523.3
624.432006836,4541.4
624.709838867,4551.25
624.987731934,4529.325
625.265563965,4512.9
625.543395996,4523.8
625.821228027,4589.125
626.098999023,4587.45
626.376831055,4610.6
626.654541016,4628.8
626.932250977,4668.675
627.209960938,4703.55
627.487670898,4715.15
627.765319824,4731.3
628.04296875,4714.75
628.320495605,4763.05
628.598083496,4735.7
628.875671387,4778.15
629.153259277,4802.35
629.430725098,4833.075
629.708251953,4831.75
629.985656738,4860.9
630.263122559,4899.65
630.540588379,4920.95
630.817932129,4922.2
631.095275879,4947.175
631.372680664,4994.45
631.649963379,5032.55
631.927246094,5059.5
632.204589844,5084.7
632.481811523,5129.6
632.759033203,5209.625
633.036254883,5218.575
633.313415527,5291.55
633.590576172,5313.1
633.867736816,5414.225
634.144836426,5463.3
634.421875,5499.55
634.698913574,5551.85
634.976013184,5588.55
635.252990723,5626.05
635.529968262,5683.875
635.807006836,5738.1
636.08392334,5730.2
636.360839844,5645.825
636.637756348,5560.1
636.914611816,5523.85
637.191467285,5486.275
637.468261719,5552.2
637.745056152,5533.4
638.021789551,5545.775
638.298583984,5557.5
638.575317383,5604.05
638.851989746,5591.725
639.12878418,5602.925
639.405395508,5577.6
639.682006836,5593.725
639.958618164,5611.4
640.235229492,5578.15
640.511779785,5627.9
640.788330078,5620.525
641.064880371,5614.6
641.341308594,5561.85
641.617797852,5594.125
641.894226074,5581.8
642.170654297,5582.8
642.44708252,5614.5
642.723388672,5573.45
642.999755859,5560.5
643.276123047,5592.2
643.552429199,5556.15
643.828674316,5556.85
644.104919434,5522.7
644.381164551,5518.4
644.657348633,5546.7
644.933532715,5489.0
645.209716797,5512.875
645.485839844,5499.2
645.761901855,5502.15
646.038024902,5470.775
646.314086914,5502.2
646.590087891,5469.425
646.866149902,5511.675
647.142150879,5446.75
647.41809082,5432.25
647.694030762,5434.7
647.969970703,5408.45
648.245788574,5450.4
648.521728516,5425.775
648.797546387,5400.2
649.073303223,5420.45
649.349182129,5374.5
649.624938965,5373.55
649.900634766,5383.2
650.176391602,5361.15
650.452087402,5346.7
650.727783203,5340.3
651.003479004,5368.05
651.279052734,5339.075
651.554626465,5327.8
651.83026123,5312.5
652.105773926,5343.5
652.381286621,5287.35
652.656860352,5299.075
652.932312012,5296.5
653.207763672,5296.85
653.483215332,5317.525
653.758605957,5325.475
654.033935547,5312.6
654.309326172,5293.9
654.584716797,5320.625
654.859985352,5300.2
655.135253906,5322.35
655.410583496,5341.675
655.685791016,6154.4
655.9609375,9594.6
656.236206055,9377.1
656.511291504,6184.75
656.786437988,5411.5
657.061645508,5317.35
657.336669922,5282.175
657.611694336,5319.95
657.886779785,5320.7
658.161804199,5322.625
658.436828613,5299.45
658.711791992,5295.825
658.986755371,5309.85
659.261657715,5268.9
659.536621094,5306.2
659.811401367,5304.125
660.086303711,5288.95
660.36114502,5312.625
660.635864258,5285.95
660.910644531,5299.7
661.185424805,5295.65
661.460205078,5319.45
661.734863281,5301.9
662.009521484,5308.85
662.284179688,5306.725
662.558776855,5298.85
662.833435059,5325.0
663.108032227,5362.8
663.382568359,5309.875
663.657043457,5338.55
663.93157959,5348.25
664.206054688,5318.0
664.48046875,5367.55
664.755004883,5363.275
665.02935791,5378.875
665.303710938,5370.75
665.578125,5379.225
665.852416992,5378.975
666.126708984,5381.85
666.401062012,5374.775
666.675292969,5380.775
666.949462891,5384.2
667.223754883,5387.025
667.497924805,5402.0
667.772094727,5401.35
668.046264648,5371.9
668.3203125,5412.525
668.594421387,5432.6
668.868469238,5399.5
669.14251709,5406.175
669.416503906,5425.825
669.690551758,5415.75
669.964477539,5421.3
670.23840332,5413.075
670.512329102,5400.25
670.786254883,5401.425
671.060058594,5407.525
671.333984375,5421.25
671.607788086,5426.7
671.881530762,5402.15
672.155334473,5438.25
672.429077148,5425.75
672.702758789,5460.05
672.97644043,5431.65
673.25012207,5418.35
673.523742676,5393.575
673.797302246,5392.3
674.070922852,5440.275
674.344482422,5431.725
674.618041992,5434.65
674.891601562,5422.7
675.165100098,5420.85
675.438476562,5409.225
675.711975098,5409.2
675.985412598,5407.225
676.258789062,5389.4
676.532165527,5408.65
676.805480957,5366.225
677.078796387,5405.75
677.352111816,5392.8
677.625366211,5408.025
677.898620605,5364.825
678.171875,5422.8
678.445007324,5362.8
678.718200684,5378.2
678.991394043,5352.65
679.264404297,5369.35
679.537536621,5377.075
679.81060791,5383.4
680.083679199,5378.825
680.356689453,5389.55
680.629699707,5364.25
680.902648926,5351.775
681.175598145,5381.525
681.448547363,5370.825
681.721435547,5330.75
681.99420166,5347.025
682.267150879,5323.625
682.539916992,5355.15
682.812744141,5319.25
683.085510254,5340.2
683.358215332,5330.6
683.63092041,5298.25
683.903625488,5285.275
684.176330566,5284.95
684.448913574,5270.925
684.721557617,5259.225
684.99420166,5280.8
685.266662598,5263.3
685.539245605,5274.775
685.811767578,5283.35
686.084289551,5275.075
686.356689453,5287.375
686.629150391,5294.95
686.901550293,5290.85
687.17401123,5271.725
687.446350098,5305.775
687.718688965,5267.775
687.990966797,5312.75
688.263305664,5294.65
688.535522461,5285.8
688.807739258,5273.325
689.079956055,5294.925
689.352172852,5292.7
689.624328613,5271.95
689.896484375,5287.325
690.168518066,5282.8
690.440612793,5289.975
690.71270752,5302.05
690.984741211,5288.55
691.256713867,5296.525
691.528747559,5286.2
691.800720215,5269.45
692.072631836,5277.025
692.344543457,5302.55
692.616394043,5309.15
692.888244629,5282.125
693.160095215,5288.0
693.431945801,5301.275
693.703674316,5258.675
693.975463867,5235.075
694.247131348,5271.175
694.518859863,5250.325
694.790588379,5271.675
695.062255859,5266.175
695.33380127,5218.65
695.60546875,5231.575
695.87701416,5239.9
696.148498535,5259.8
696.42010498,5229.975
696.691589355,5230.725
696.96307373,5259.55
697.234558105,5274.75
697.50592041,5250.45
697.777282715,5252.3
698.048706055,5252.95
698.320068359,5272.1
698.591308594,5224.1
698.862670898,5237.2
699.133972168,5250.75
699.405151367,5202.075
699.676391602,5254.05
699.947570801,5216.325
700.21875,5218.05
700.489868164,5231.35
700.761047363,5228.05
701.032104492,5248.75
701.303100586,5182.575
701.57421875,5215.95
701.845214844,5200.625
702.116149902,5220.25
702.387207031,5191.4
702.65814209,5208.375
702.928955078,5221.8
703.199951172,5161.225
703.47076416,5174.175
703.741577148,5157.2
704.012451172,5188.4
704.28314209,5163.95
704.553955078,5138.15
704.824707031,5179.35
705.095397949,5186.25
705.366027832,5179.225
705.63671875,5175.45
705.907348633,5148.725
706.17791748,5146.475
706.448486328,5153.95
706.719055176,5171.975
706.989562988,5146.25
707.260131836,5149.025
707.530517578,5159.05
707.800964355,5149.375
708.071411133,5104.875
708.341796875,5103.25
708.612182617,5105.45
708.882446289,5070.55
709.152893066,5093.125
709.423156738,5096.9
709.693359375,5076.95
709.963623047,5083.075
710.233825684,5076.175
710.503967285,5030.9
710.774169922,5056.65
711.044311523,5058.9
711.31439209,5024.025
711.584533691,5054.9
711.854553223,5034.525
712.124572754,5026.85
712.39465332,5021.85
712.664611816,5034.65
712.934509277,5054.525
713.204467773,5038.075
713.474365234,5037.275
713.74420166,5007.975
714.014099121,5005.05
714.283874512,4974.25
714.553710938,5003.775
714.823486328,5008.075
715.093200684,4981.925
715.362915039,4984.95
715.632629395,4956.9
715.902282715,4952.25
716.171875,4911.675
716.441589355,4934.1
716.711181641,4911.325
716.980712891,4924.725
717.250244141,4933.725
717.519775391,4899.2
717.78918457,4887.975
718.058654785,4929.525
718.328125,4933.25
718.597473145,4884.525
718.866882324,4889.375
719.136230469,4905.075
719.405578613,4917.625
719.674865723,4925.1
719.944152832,4885.225
720.213439941,4857.025
720.48260498,4901.3
720.75177002,4884.925
721.020996094,4869.125
721.290100098,4860.975
721.559204102,4870.875
721.828308105,4870.475
722.097351074,4867.825
722.366455078,4835.1
722.635437012,4825.625
722.904418945,4820.3
723.173400879,4846.575
723.442321777,4817.275
723.711181641,4815.4
723.980102539,4815.6
724.248962402,4816.05
724.51776123,4793.3
724.786560059,4804.4
725.055358887,4809.925
725.324035645,4780.7
725.592834473,4803.725
725.86151123,4783.75
726.130187988,4782.0
726.398803711,4765.5
726.667419434,4788.9
726.935974121,4769.75
727.204528809,4725.625
727.473083496,4733.45
727.741638184,4707.5
728.010070801,4690.35
728.278564453,4680.625
728.546936035,4692.0
728.815368652,4633.125
729.08380127,4600.525
729.352111816,4564.75
729.620361328,4530.6
729.88873291,4562.575
730.156982422,4584.575
730.425231934,4596.85
730.693481445,4577.9
730.961669922,4613.575
731.229797363,4622.75
731.49798584,4639.625
731.766113281,4644.625
732.034118652,4694.25
732.302246094,4723.975
732.570251465,4710.45
732.838256836,4755.2
733.106262207,4776.225
733.374145508,4803.2
733.642089844,4829.85
733.909973145,4853.925
734.177856445,4874.425
734.445678711,4915.75
734.713562012,4970.875
734.981323242,4978.1
735.249084473,5020.85
735.516845703,5094.825
735.784545898,5099.85
736.052185059,5111.925
736.319885254,5170.4
736.587524414,5198.625
736.855102539,5203.9
737.122619629,5283.6
737.390197754,5291.425
737.657714844,5356.45
737.925170898,5379.4
738.192749023,5436.4
738.460144043,5474.925
738.727539062,5498.5
738.994995117,5544.05
739.262329102,5586.65
739.529663086,5651.45
739.79699707,5674.7
740.06427002,5700.725
740.331481934,5719.1
740.598754883,5769.35
740.865905762,5791.925
741.133056641,5855.95
741.40032959,5861.05
741.667358398,5925.25
741.934448242,5925.675
742.201599121,5956.825
742.468566895,6021.675
742.735534668,6041.475
743.002563477,6039.55
743.26953125,6036.25
743.536437988,6078.9
743.803405762,6112.3
744.0703125,6088.125
744.337097168,6158.475
744.604003906,6114.65
744.870727539,6178.6
745.137512207,6180.925
745.40423584,6188.95
745.670959473,6194.25
745.93762207,6188.825
746.204284668,6216.45
746.470947266,6225.05
746.737548828,6183.55
747.004089355,6229.55
747.270751953,6220.1
747.53717041,6244.575
747.803710938,6219.275
748.070251465,6203.425
748.336608887,6211.575
748.603027344,6179.4
748.869445801,6193.375
749.135803223,6209.425
749.402099609,6211.625
749.668457031,6216.4
749.934753418,6190.025
750.20098877,6186.875
750.467224121,6239.85
750.733459473,6187.025
750.999572754,6177.3
751.26574707,6161.6
751.531860352,6154.85
751.797912598,6135.9
752.064025879,6099.45
752.330078125,6133.15
752.596069336,6095.625
752.862060547,6097.6
753.127990723,6080.15
753.393920898,6074.275
753.659912109,6063.725
753.925720215,6094.125
754.19152832,6073.9
754.457397461,6036.975
754.723144531,6000.95
754.988952637,6008.5
755.254699707,6025.175
755.520385742,6054.325
755.786071777,6044.15
756.051696777,6036.7
756.317382812,6002.25
756.582946777,5999.5
756.848510742,6021.875
757.114074707,5970.2
757.379577637,5980.625
757.645080566,6027.3
757.910583496,6005.95
758.175964355,5990.8
758.441345215,5959.825
758.706848145,5897.2
758.972106934,5917.6
759.237426758,5930.45
759.502807617,5939.025
759.768005371,5932.125
760.03326416,5909.275
760.298522949,5871.45
760.563659668,5888.275
760.828857422,5882.7
761.093994141,5884.8
761.359130859,5860.325
761.624206543,5849.2
761.889282227,5812.625
762.15423584,5838.825
762.419250488,5829.6
762.684265137,5811.575
762.949157715,5805.15
763.214050293,5804.325
763.479003906,5804.125
763.743835449,5784.35
764.008666992,5778.875
764.2734375,5786.075
764.538208008,5807.1
764.802978516,5819.4
765.067687988,5822.275
765.332397461,5809.175
765.597045898,5780.075
765.861694336,5788.925
766.126342773,5756.375
766.390930176,5764.65
766.655395508,5755.875
766.920043945,5734.35
767.184509277,5742.3
767.448974609,5761.2
767.713439941,5754.175
767.977783203,5721.15
768.2421875,5766.9
768.506591797,5737.95
768.770874023,5784.875
769.03515625,5761.525
769.299499512,5738.9
769.563720703,5756.8
769.827941895,5721.65
770.092163086,5734.95
770.356323242,5739.6
770.620483398,5767.925
770.88458252,5762.2
771.148681641,5769.925
771.412719727,5778.575
771.676757812,5794.8
771.940734863,5750.65
772.204711914,5743.025
772.468688965,5758.85
772.73260498,5749.225
772.996459961,5769.1
773.260314941,5120.925
773.524169922,700.975
773.787963867,137.2
774.051696777,122.55
774.315551758,122.675
774.579223633,122.425
774.842895508,119.875
775.106567383,123.6
775.370239258,119.375
775.633789062,122.425
775.897399902,126.8
776.160949707,118.25
776.424499512,123.625
776.687988281,124.6
776.951477051,127.125
777.214904785,121.5
777.47833252,122.4
