191.299911499,100.2
191.603515625,103.075
191.907119751,97.3
192.210693359,106.2
192.514251709,98.075
192.817810059,102.425
193.121368408,103.875
193.42489624,103.75
193.728408813,99.05
194.031936646,100.575
194.33543396,94.4
194.638916016,111.075
194.94241333,97.775
195.245880127,98.6
195.549331665,94.875
195.852767944,100.45
196.156204224,184.8
196.459625244,178.3
196.763015747,177.375
197.066436768,187.8
197.369812012,178.25
197.673187256,178.05
197.9765625,174.0
198.279922485,179.275
198.583251953,177.225
198.886581421,179.6
199.18989563,185.4
199.493209839,182.875
199.79649353,173.775
200.09979248,188.275
200.403076172,180.725
200.706314087,180.45
201.009567261,180.9
201.312820435,186.075
201.616027832,174.65
201.919235229,169.15
202.222457886,175.0
202.525634766,175.425
202.828826904,167.75
203.132003784,172.375
203.435150146,172.075
203.738296509,171.35
204.041412354,171.45
204.344558716,180.325
204.647659302,178.55
204.950759888,177.575
205.253845215,174.825
205.556930542,170.3
205.859985352,175.075
206.163024902,173.5
206.466079712,175.275
206.769104004,186.125
207.072113037,175.95
207.375137329,179.025
207.678131104,173.175
207.981109619,176.6
208.284088135,172.95
208.587036133,179.75
208.889984131,177.425
209.19291687,179.025
209.495849609,181.8
209.798751831,179.675
210.101654053,178.35
210.404556274,179.7
210.707427979,177.525
211.010269165,187.35
211.31312561,182.3
211.615982056,184.025
211.918807983,188.8
212.221618652,184.15
212.524429321,179.3
212.827224731,189.425
213.130004883,185.375
213.432769775,181.7
213.735534668,185.85
214.038269043,189.7
214.341003418,190.5
214.643737793,190.2
214.946456909,194.575
215.249145508,193.475
215.551834106,199.575
215.854507446,195.375
216.157165527,194.85
216.45980835,197.8
216.762451172,204.475
217.065078735,202.1
217.36769104,199.55
217.670303345,205.55
217.972885132,205.9
218.275466919,211.6
218.578048706,202.05
218.880599976,217.9
219.183120728,219.275
219.485656738,225.525
219.788192749,247.575
220.090682983,263.6
220.393188477,285.475
220.695663452,326.625
220.998138428,352.55
221.300582886,399.6
221.603042603,433.175
221.905487061,484.325
222.207901001,541.325
222.510299683,599.55
222.812728882,660.125
223.115097046,736.525
223.41746521,804.45
223.719848633,872.65
224.022171021,944.65
224.324508667,1020.725
224.626846313,1117.1
224.929168701,1177.7
225.231460571,1265.55
225.533737183,1330.75
225.836013794,1411.275
226.138290405,1491.125
226.440536499,1531.075
226.742767334,1620.075
227.044998169,1660.55
227.347213745,1741.1
227.649429321,1785.9
227.951629639,1833.075
228.253799438,1867.6
228.555953979,1924.175
228.858123779,1961.275
229.160263062,1980.725
229.462371826,2024.6
229.764511108,2044.1
230.066619873,2072.45
230.36869812,2100.275
230.670776367,2115.475
230.972854614,2149.575
231.274902344,2185.95
231.576950073,2230.2
231.878967285,2247.225
232.180999756,2297.95
232.48298645,2332.025
232.784988403,2380.975
233.086975098,2397.375
233.388946533,2434.25
233.69090271,2466.475
233.992858887,2508.925
234.294769287,2516.825
234.596694946,2558.075
234.898605347,2599.75
235.200500488,2623.575
235.502380371,2641.2
235.804244995,2677.425
236.106109619,2657.125
236.407958984,2697.375
236.709777832,2717.825
237.011581421,2735.625
237.313400269,2736.125
237.615203857,2747.975
237.916976929,2790.375
238.21875,2795.475
238.520507812,2823.1
238.822250366,2831.45
239.12399292,2833.125
239.425704956,2873.95
239.727401733,2868.875
240.02911377,2892.775
240.330780029,2875.7
240.632446289,2916.2
240.93409729,2917.725
241.23576355,2950.55
241.537384033,2987.175
241.839004517,3012.7
242.140594482,3026.025
242.442199707,3060.525
242.743774414,3086.2
243.045333862,3112.675
243.346923828,3130.55
243.648452759,3190.1
243.949966431,3200.25
244.251495361,3235.15
244.552993774,3275.85
244.854492188,3298.85
245.155975342,3323.975
245.457443237,3367.375
245.758880615,3391.5
246.060333252,3415.55
246.36177063,3439.925
246.66317749,3453.7
246.964569092,3496.0
247.265945435,3526.975
247.567337036,3555.75
247.86869812,3608.1
248.170059204,3647.825
248.471389771,3676.975
248.772705078,3745.325
249.074035645,3807.05
249.375335693,3852.35
249.676620483,3918.9
249.977890015,4005.975
250.279159546,4060.55
250.58039856,4151.575
250.881637573,4217.25
251.182876587,4291.8
251.484069824,4376.35
251.785263062,4476.575
252.086456299,4563.475
252.387619019,4629.8
252.688781738,4712.675
252.989929199,4797.35
253.291061401,4896.6
253.592178345,4981.65
253.893280029,5082.8
254.194366455,5164.55
254.49546814,5200.55
254.796524048,5238.1
255.097579956,5335.125
255.398620605,5373.525
255.699645996,5459.675
256.000640869,5477.175
256.30166626,5512.825
256.602661133,5580.075
256.903656006,5571.5
257.204589844,5609.525
257.505523682,5604.425
257.80645752,5624.25
258.107391357,5627.975
258.408294678,5637.975
258.709228516,5625.875
259.010070801,5596.9
259.310943604,5586.05
259.611846924,5563.825
259.912658691,5508.1
260.213500977,5492.875
260.514343262,5435.0
260.815124512,5372.3
261.115936279,5379.8
261.416717529,5350.95
261.717468262,5336.675
262.018218994,5284.225
262.318969727,5294.475
262.619689941,5307.8
262.920410156,5343.55
263.221130371,5374.25
263.521789551,5387.725
263.822479248,5437.65
264.123138428,5468.2
264.42376709,5459.15
264.72442627,5441.55
265.025054932,5468.1
265.325622559,5487.875
265.626251221,5465.525
265.926818848,5437.625
266.227386475,5363.6
266.527954102,5343.65
266.828460693,5337.325
267.12902832,5245.725
267.429534912,5203.45
267.730010986,5174.875
268.030517578,5109.2
268.330993652,5065.625
268.631439209,5022.925
268.931915283,5000.975
269.232299805,4966.175
269.532745361,4930.925
269.8331604,4898.775
270.133544922,4867.475
270.433929443,4865.8
270.734313965,4838.4
271.034637451,4836.625
271.334991455,4814.8
271.635314941,4838.7
271.935638428,4829.375
272.235931396,4855.075
272.536254883,4876.825
272.836486816,4920.075
273.136749268,4984.875
273.437011719,5038.85
273.737213135,5116.175
274.037445068,5184.15
274.337677002,5246.4
274.6378479,5309.425
274.938049316,5432.825
275.238220215,5481.1
275.538360596,5598.675
275.838500977,5634.3
276.138641357,5748.7
276.438751221,5781.5
276.738830566,5862.45
277.03894043,5919.775
277.338989258,6022.025
277.639038086,6098.3
277.939056396,6125.4
278.239105225,6153.2
278.539093018,6218.95
278.839141846,6268.675
279.139129639,6307.575
279.439086914,6367.7
279.739044189,6414.45
280.039001465,6475.725
280.338928223,6496.55
280.63885498,6529.975
280.938781738,6600.35
281.238647461,6602.2
281.538513184,6593.525
281.838409424,6610.25
282.138244629,6660.3
282.438079834,6658.175
282.737945557,6701.35
283.037719727,6704.475
283.337524414,6724.1
283.637298584,6744.025
283.937072754,6753.025
284.236816406,6749.85
284.536560059,6737.475
284.836303711,6723.125
285.136016846,6777.1
285.43572998,6780.075
285.735412598,6759.675
286.035064697,6760.95
286.334747314,6824.425
286.634368896,6782.9
286.933990479,6747.95
287.233642578,6701.575
287.533203125,6703.425
287.832824707,6641.5
288.132385254,6549.9
288.431945801,6462.4
288.731506348,6328.45
289.031036377,6179.35
289.330566406,6080.9
289.630065918,6067.175
289.92956543,6037.725
290.229034424,6133.725
290.528503418,6249.6
290.827941895,6413.95
291.127380371,6524.35
291.42678833,6618.1
291.726226807,6715.05
292.025604248,6739.85
292.324981689,6778.7
292.624359131,6800.5
292.923736572,6791.45
293.223052979,6805.675
293.522369385,6792.2
293.821685791,6761.35
294.12097168,6742.425
294.420257568,6716.7
294.719543457,6703.975
295.018768311,6685.325
295.318023682,6640.6
295.617248535,6583.05
295.916442871,6535.35
296.215667725,6480.825
296.514862061,6365.325
296.813995361,6162.875
297.11315918,6015.625
297.412322998,5922.325
297.711425781,5887.125
298.010559082,5993.0
298.309631348,6183.95
298.608734131,6366.05
298.907806396,6517.3
299.206848145,6639.0
299.505889893,6704.05
299.804901123,6792.175
300.103912354,6849.75
300.402954102,6910.3
300.701904297,6955.1
301.00088501,7026.2
301.299835205,7102.425
301.5987854,7127.15
301.897735596,7177.3
302.196624756,7230.975
302.495513916,7295.475
302.794403076,7334.025
303.093292236,7370.225
303.392120361,7427.325
303.690979004,7496.5
303.989837646,7514.75
304.288604736,7567.35
304.587402344,7562.225
304.886199951,7580.225
305.184967041,7631.525
305.483734131,7685.15
305.782501221,7691.7
306.081176758,7691.3
306.37991333,7733.275
306.678619385,7763.8
306.977294922,7759.65
307.275970459,7770.225
307.574645996,7791.65
307.873260498,7767.875
308.171875,7761.6
308.470489502,7789.5
308.769104004,7727.75
309.067687988,7724.975
309.366241455,7720.075
309.664794922,7688.85
309.963348389,7690.95
310.261871338,7708.975
310.560394287,7708.875
310.858856201,7721.575
311.157348633,7770.825
311.455810547,7751.175
311.754272461,7756.225
312.052703857,7845.375
312.351135254,7864.275
312.649536133,7863.475
312.947937012,7823.975
313.246307373,7868.55
313.544647217,7883.55
313.843017578,7811.15
314.141387939,7797.8
314.439697266,7820.775
314.738006592,7739.975
315.036315918,7712.6
315.334564209,7646.425
315.6328125,7585.775
315.931091309,7554.075
316.229309082,7426.2
316.527526855,7330.825
316.825744629,7295.1
317.123901367,7206.025
317.422088623,7179.325
317.720245361,7195.45
318.0184021,7170.5
318.316497803,7206.9
318.614654541,7268.15
318.912750244,7317.35
319.21081543,7319.05
319.50894165,7345.6
319.806945801,7329.425
320.104980469,7348.175
320.403045654,7316.625
320.701049805,7317.2
320.999023438,7307.825
321.297027588,7267.225
321.595001221,7237.85
321.892913818,7186.65
322.190887451,7168.45
322.488830566,7136.975
322.786712646,7079.725
323.084625244,7002.7
323.382507324,6981.875
323.680358887,6910.875
323.978210449,6843.4
324.276062012,6802.35
324.573852539,6760.325
324.871643066,6695.975
325.169464111,6667.25
325.467224121,6610.9
325.764984131,6536.35
326.062744141,6487.45
326.360473633,6398.225
326.658203125,6355.425
326.955871582,6296.325
327.253570557,6254.775
327.551239014,6190.3
327.848907471,6153.45
328.146514893,6077.25
328.444152832,6015.425
328.741790771,5990.825
329.039367676,5925.475
329.336914062,5885.775
329.634521484,5825.1
329.932067871,5784.8
330.229553223,5742.2
330.527160645,5674.55
330.824615479,5635.125
331.12210083,5578.85
331.419586182,5458.825
331.717041016,5430.75
332.014465332,5357.775
332.311920166,5333.775
332.609313965,5275.45
332.906707764,5277.425
333.204101562,5263.225
333.501495361,5260.175
333.798828125,5317.6
334.096160889,5363.325
334.39352417,5416.625
334.690795898,5444.625
334.988098145,5476.225
335.285400391,5523.325
335.582641602,5526.275
335.879882812,5552.1
336.177124023,5574.975
336.474334717,5640.575
336.77154541,5644.825
337.068725586,5641.15
337.365905762,5664.225
337.66305542,5676.35
337.960205078,5700.825
338.257324219,5703.075
338.554443359,5713.125
338.8515625,5729.95
339.148590088,5727.1
339.445648193,5749.0
339.742736816,5712.35
340.039764404,5691.975
340.336761475,5667.975
340.63381958,5630.55
340.930755615,5598.7
341.227722168,5508.325
341.524688721,5464.3
341.821624756,5420.75
342.118560791,5433.85
342.415496826,5516.375
342.712402344,5617.1
343.009246826,5745.9
343.306121826,5842.425
343.602966309,5922.525
343.899810791,5979.95
344.196624756,6049.475
344.493438721,6075.425
344.79019165,6148.25
345.086975098,6170.975
345.383758545,6201.175
345.680480957,6198.825
345.977203369,6217.525
346.273956299,6268.75
346.570617676,6225.725
346.86730957,6245.125
347.163970947,6244.6
347.460601807,6255.825
347.757232666,6256.05
348.053894043,6261.75
348.350463867,6219.35
348.647064209,6202.525
348.943634033,6195.025
349.24017334,6204.1
349.536712646,6161.3
349.833251953,6148.4
350.129760742,6125.425
350.426208496,6134.85
350.722747803,6106.0
351.019195557,6088.8
351.315612793,6053.4
351.612060547,6005.4
351.908508301,5977.2
352.204864502,5924.825
352.501281738,5886.85
352.797637939,5819.325
353.093963623,5755.55
353.390319824,5702.5
353.686645508,5639.05
353.982940674,5563.65
354.27923584,5529.125
354.575531006,5475.45
354.871765137,5480.375
355.167999268,5444.425
355.464233398,5440.075
355.760437012,5463.15
356.056640625,5477.575
356.352813721,5482.525
356.648956299,5480.125
356.945129395,5479.25
357.241271973,5469.0
357.537384033,5493.825
357.833496094,5457.8
358.129577637,5419.55
358.425628662,5415.6
358.721679688,5404.975
359.017730713,5370.75
359.313720703,5325.425
359.609710693,5306.125
359.905761719,5269.75
360.201721191,5234.075
360.497650146,5186.3
360.793609619,5163.475
361.089538574,5085.4
361.385437012,5027.225
361.681365967,4989.9
361.977233887,4951.925
362.273071289,4873.625
362.568908691,4793.75
362.864746094,4675.0
363.160552979,4574.325
363.456359863,4417.775
363.752166748,4299.175
364.047912598,4230.75
364.343658447,4212.5
364.639434814,4232.25
364.935119629,4248.675
365.230834961,4321.375
365.526550293,4366.4
365.822174072,4352.375
366.117858887,4376.3
366.413482666,4408.25
366.709075928,4436.95
367.004730225,4362.825
367.300292969,4334.975
367.595855713,4397.175
367.891448975,4290.475
368.186981201,4203.125
368.482513428,4160.675
368.778015137,4163.25
369.073547363,4129.55
369.36895752,4134.525
369.664428711,4043.75
369.95993042,3942.425
370.255310059,3895.925
370.550720215,3879.425
370.846160889,3838.675
371.14151001,3822.075
371.436859131,3799.175
371.73223877,3777.525
372.027557373,3745.4
372.322875977,3698.7
372.618164062,3671.125
372.913482666,3653.15
373.208709717,3623.825
373.503967285,3565.075
373.799194336,3522.825
374.094421387,3520.875
374.389648438,3506.45
374.684844971,3501.85
374.979980469,3536.85
375.275146484,3558.525
375.570281982,3568.825
375.865386963,3561.4
376.160522461,3529.8
376.455596924,3552.075
376.750640869,3617.7
377.045715332,3626.575
377.340759277,3653.3
377.635772705,3724.05
377.93081665,3738.65
378.225769043,3795.9
378.520751953,3834.925
378.815734863,3815.025
379.110656738,3971.05
379.405548096,4119.3
379.700500488,3977.375
379.995391846,3796.3
380.290252686,3839.325
380.585083008,3944.2
380.879974365,3961.875
381.17477417,3884.675
381.469543457,3823.975
381.764404297,3831.825
382.059143066,3869.475
382.353912354,3934.65
382.648651123,4019.725
382.943389893,3989.55
383.238067627,3842.5
383.532775879,3839.275
383.827484131,3770.575
384.12210083,3784.15
384.416778564,3746.325
384.711425781,3655.8
385.006011963,3671.525
385.300628662,3664.875
385.595184326,3732.7
385.88973999,3826.675
386.184295654,3916.25
386.478820801,3988.7
386.77331543,4074.525
387.067840576,4159.175
387.362335205,4247.975
387.656768799,4317.9
387.951202393,4339.675
388.245635986,4411.2
388.540039062,4487.0
388.834472656,4531.975
389.128875732,4447.25
389.423187256,4232.075
389.717559814,4196.7
390.011871338,4301.05
390.306182861,4326.475
390.600463867,4327.95
390.894775391,4405.1
391.189025879,4437.825
391.48324585,4420.625
391.777526855,4464.6
392.071685791,4660.1
392.365875244,4732.5
392.660064697,4794.775
392.95425415,5113.35
393.248382568,5093.4
393.542510986,4657.625
393.836608887,4510.975
394.130706787,4519.475
394.424804688,4453.1
394.71887207,4559.275
395.012878418,4558.3
395.306915283,4448.35
395.600921631,4395.5
395.894927979,4351.725
396.188903809,4406.775
396.482879639,4411.3
396.776794434,4607.4
397.070739746,4568.15
397.364654541,4583.85
397.658538818,4920.6
397.952423096,4952.225
398.246307373,4919.6
398.540100098,5414.525
398.833953857,5299.275
399.127746582,4843.325
399.421508789,4871.55
399.715301514,4811.55
400.009063721,4723.7
400.30279541,4595.275
400.596496582,4521.325
400.890258789,4669.875
401.183929443,4741.6
401.47756958,4633.625
401.771240234,4423.3
402.064880371,4448.675
402.35848999,4482.425
402.652130127,4398.425
402.945678711,4456.7
403.239257812,4405.875
403.532775879,4348.625
403.82635498,4409.35
404.119842529,4312.4
404.413360596,4319.125
404.706848145,4354.8
405.000274658,4294.625
405.293762207,4385.5
405.587188721,4436.475
405.880584717,4274.525
406.17401123,4100.975
406.467407227,3933.175
406.760742188,3933.925
407.054107666,3972.275
407.347442627,3899.425
407.640716553,3889.725
407.934051514,3945.8
408.227325439,4003.425
408.520568848,4198.475
408.813842773,4269.0
409.107086182,4092.225
409.400238037,4040.825
409.693450928,3995.45
409.986633301,4087.15
410.279754639,4026.65
410.572875977,3773.675
410.86605835,3686.0
411.159118652,3715.25
411.452209473,3719.325
411.745330811,3580.075
412.038360596,3530.775
412.331390381,3543.15
412.624420166,3589.625
412.917388916,3508.1
413.210388184,3334.4
413.503387451,3311.55
413.796295166,3222.95
414.089233398,3068.95
414.382141113,2994.375
414.675048828,2974.7
414.967926025,3000.6
415.260803223,2958.55
415.55368042,2990.75
415.846466064,2946.85
416.139282227,3025.25
416.432098389,3129.725
416.724853516,3127.675
417.017608643,3068.975
417.31036377,3082.95
417.603088379,3208.6
417.895782471,3173.65
418.188476562,3147.025
418.481140137,3208.025
418.773803711,3261.025
419.066436768,3233.55
419.359039307,3283.525
419.651641846,3306.6
419.944244385,3298.625
420.236816406,3261.35
420.529327393,3441.6
420.821899414,3527.475
421.114379883,3457.05
421.406860352,3692.05
421.699371338,3900.225
421.991821289,3854.65
422.284240723,3665.85
422.576721191,3542.2
422.869110107,3455.825
423.161468506,3385.675
423.453857422,3430.425
423.74621582,3307.325
424.038543701,3193.275
424.330871582,3167.125
424.623168945,3101.275
424.915435791,3227.725
425.207702637,3185.375
425.499969482,3141.375
425.792205811,3082.85
426.084411621,2852.675
426.376617432,2940.425
426.668762207,2990.775
426.9609375,2880.95
427.253082275,2977.9
427.545196533,3365.5
427.837310791,3125.2
428.129425049,2857.2
428.421447754,3047.8
428.713531494,3048.6
429.005554199,3054.475
429.297576904,3054.625
429.589599609,3415.125
429.881561279,3710.525
430.173522949,3531.95
430.465484619,3494.0
430.757415771,3555.85
431.049316406,3342.85
431.341186523,3131.9
431.633117676,3041.75
431.924957275,2755.2
432.21673584,2661.675
432.508636475,2802.55
432.800415039,2810.85
433.092163086,2720.125
433.383972168,2703.825
433.675689697,3331.875
433.967437744,3786.925
434.259155273,2911.9
434.550872803,2641.0
434.842498779,2699.3
435.134185791,2800.45
435.425842285,2829.975
435.717437744,2726.125
436.009063721,2580.925
436.30065918,2702.4
436.592224121,3022.025
436.883758545,2824.925
437.175323486,2599.025
437.466827393,2575.4
437.758331299,2599.0
438.049804688,2607.3
438.341247559,2658.05
438.63269043,2741.725
438.924163818,2719.35
439.215515137,2693.4
439.50692749,2596.0
439.798309326,2610.825
440.089660645,2603.975
440.380981445,2528.9
440.672332764,2511.175
440.963623047,2775.075
441.254882812,3201.025
441.546173096,3341.3
441.837402344,3120.375
442.128631592,2944.975
442.41986084,2925.425
442.711029053,2802.425
443.002197266,2882.9
443.293365479,3057.1
443.584503174,3165.025
443.875610352,3145.575
444.166717529,2893.275
444.457794189,2954.125
444.748840332,2934.55
445.039916992,2893.475
445.330932617,2992.1
445.621948242,2832.2
445.912963867,2655.775
446.203918457,2866.325
446.494812012,3070.625
446.785827637,2893.6
447.076721191,2731.9
447.367584229,2709.7
447.658447266,2696.775
447.949371338,2727.725
448.24017334,2625.0
448.530975342,2565.15
448.821838379,2713.425
449.112579346,2777.95
449.40335083,2723.275
449.694152832,2757.075
449.984863281,2754.4
450.27557373,2693.175
450.56628418,2764.975
450.856933594,2780.6
451.147583008,2612.125
451.438262939,2517.05
451.728881836,2704.775
452.019470215,2793.2
452.310089111,2604.65
452.600646973,2637.875
452.891174316,2684.375
453.181732178,2519.525
453.472229004,2395.875
453.762695312,2497.925
454.053222656,2525.125
454.343658447,2409.525
454.634063721,2359.9
454.924530029,2513.225
455.214935303,2642.95
455.505279541,2703.85
455.795715332,2576.925
456.086029053,2396.35
456.376312256,2387.15
456.666687012,2414.9
456.956939697,2503.35
457.247192383,2521.1
457.537445068,2573.3
457.827728271,2740.925
458.117919922,2668.375
458.408081055,2599.725
458.698303223,2762.35
458.988433838,2693.95
459.278564453,2536.975
459.568725586,2793.175
459.858825684,2901.3
460.148864746,2607.55
460.438995361,2588.9
460.729034424,2640.85
461.019042969,2633.175
461.309082031,2813.75
461.599060059,2712.225
461.889007568,2297.2
462.179016113,2140.35
462.468933105,2348.0
462.75881958,2443.2
463.048736572,2217.775
463.338592529,2467.55
463.628448486,2774.1
463.918365479,2505.9
464.2081604,2656.275
464.497924805,2637.825
464.787780762,2745.425
465.077514648,3019.975
465.367218018,2673.925
465.657012939,2857.35
465.946685791,3212.825
466.236358643,2866.25
466.526092529,2381.925
466.815734863,2368.325
467.105316162,2326.15
467.394927979,2343.875
467.684570312,2216.5
467.974121094,2300.025
468.263671875,2391.825
468.553222656,2198.2
468.842773438,2110.275
469.132232666,2001.8
469.42175293,2032.625
469.711212158,2015.75
470.000640869,1892.85
470.290100098,1950.975
470.579498291,1983.275
470.868835449,1986.775
471.158294678,1952.925
471.447601318,1934.35
471.736907959,1994.25
472.026275635,2040.625
472.315551758,2019.4
472.604797363,2041.475
472.894104004,2151.475
473.183319092,2235.05
473.47253418,2236.75
473.761779785,2220.9
474.05090332,2167.675
474.340087891,2116.225
474.629241943,2061.95
474.918365479,2215.15
475.207427979,2453.6
475.496551514,2478.225
475.785614014,2235.675
476.074645996,2073.825
476.363708496,2145.35
476.652679443,2273.45
476.941650391,2118.675
477.230682373,1968.475
477.519622803,1975.25
477.808502197,2115.825
478.097412109,2336.325
478.386352539,2306.45
478.675201416,2067.8
478.964050293,1961.375
479.25289917,2127.55
479.541717529,2194.7
479.830474854,2047.475
480.11932373,2360.275
480.408050537,2515.775
480.696777344,2165.875
480.985534668,2056.25
481.274200439,2135.975
481.562866211,2357.425
481.851593018,2371.775
482.140197754,2322.625
482.428833008,2178.825
482.717468262,1995.675
483.006011963,2032.475
483.294586182,2128.9
483.5831604,2172.925
483.871673584,2040.4
484.16015625,2164.8
484.448699951,2368.95
484.7371521,2417.65
485.02557373,2418.475
485.314025879,2178.0
485.602416992,3388.9
485.890777588,12027.6
486.179199219,10714.45
486.467559814,2860.375
486.755859375,2090.075
487.044219971,2430.2
487.332519531,2596.175
487.620758057,2226.65
487.908966064,2005.65
488.197265625,1811.075
488.485473633,1730.2
488.773651123,1839.5
489.061859131,1824.1
489.350006104,1782.55
489.638122559,1726.175
489.926300049,1747.5
490.214355469,1701.925
490.502441406,1655.35
490.790527344,1588.225
491.078552246,1761.7
491.366546631,1762.775
491.654602051,1556.8
491.942565918,1612.65
492.230499268,1659.425
492.518493652,1620.6
492.806396484,1657.625
493.094268799,1573.675
493.382202148,1611.05
493.670074463,1709.75
493.957885742,1576.625
494.245727539,1573.35
494.533508301,1715.55
494.821289062,1615.1
495.109100342,1474.7
495.396850586,1440.275
495.684539795,1391.85
495.972290039,1591.325
496.25994873,1873.95
496.547607422,1887.875
496.835296631,1730.775
497.122894287,1439.375
497.410522461,1370.525
497.6980896,1386.775
497.985687256,1343.925
498.273223877,1441.55
498.560760498,1507.55
498.848266602,1507.65
499.135772705,1492.325
499.423217773,1543.05
499.710693359,1626.45
499.998138428,1558.175
500.285522461,1424.3
500.572937012,1346.15
500.860290527,1391.4
501.147644043,1483.725
501.434997559,1683.05
501.722290039,1574.325
502.00958252,1368.35
502.296875,1591.825
502.584106445,1581.625
502.871337891,1415.075
503.158599854,1479.2
503.445770264,1553.425
503.732910156,1529.65
504.020141602,1365.45
504.307220459,1358.25
504.594329834,1386.575
504.881469727,1324.075
505.168518066,1386.375
505.455535889,1445.775
505.742614746,1330.75
506.029632568,1273.6
506.316589355,1441.5
506.603637695,1509.9
506.890563965,1347.0
507.177459717,1195.775
507.464385986,1120.875
507.751312256,1318.4
508.038146973,1385.075
508.325012207,1274.825
508.611877441,1318.925
508.898681641,1331.2
509.185424805,1179.925
509.472259521,1151.325
509.759002686,1231.2
510.045715332,1251.075
510.332458496,1200.55
510.619140625,1255.625
510.905761719,1184.375
511.192504883,1174.475
511.479095459,1212.625
511.765686035,1172.8
512.052307129,1102.025
512.338928223,1053.225
512.625427246,1103.975
512.91204834,1161.7
513.198486328,1131.4
513.484985352,1107.575
513.77142334,1044.625
514.057922363,1085.7
514.344299316,1075.05
514.63079834,1044.25
514.917175293,1025.275
515.203552246,947.925
515.489868164,935.7
515.776245117,1035.95
516.0625,1062.75
516.348815918,995.6
516.635070801,1019.375
516.921325684,1063.475
517.207580566,1003.2
517.493774414,938.875
517.779968262,943.6
518.066101074,982.125
518.352294922,931.15
518.638366699,938.0
518.924499512,1004.325
519.210632324,1074.025
519.496643066,1039.925
519.782714844,942.85
520.068786621,922.625
520.354736328,893.45
520.640686035,856.725
520.926757812,893.125
521.212646484,966.175
521.498535156,964.975
521.784484863,919.65
522.0703125,858.175
522.356262207,871.725
522.642089844,940.9
522.927856445,932.625
523.213684082,922.925
523.499511719,924.7
523.78527832,950.45
524.070983887,996.975
524.356750488,966.675
524.64239502,949.825
524.928039551,939.1
525.213806152,951.9
525.499389648,944.725
525.784973145,958.375
526.070617676,1007.525
526.356140137,973.4
526.641723633,975.925
526.927307129,1021.825
527.212768555,1036.35
527.498291016,1015.325
527.783752441,1015.3
528.069213867,996.725
528.354675293,1024.0
528.640014648,1148.4
528.925476074,1207.35
529.21081543,1141.35
529.496154785,1120.75
529.781555176,1093.2
530.066833496,1109.275
530.352050781,1119.75
530.637390137,1117.275
530.922607422,1107.625
531.207824707,1109.075
531.493041992,1097.375
531.778198242,1152.65
532.063354492,1140.725
532.348571777,1090.975
532.633666992,1108.725
532.918762207,1177.6
533.203857422,1231.75
533.488891602,1264.35
533.773925781,1217.2
534.059020996,1200.275
534.343933105,1220.725
534.628967285,1193.125
534.91394043,1211.2
535.198852539,1223.325
535.483703613,1198.15
535.768676758,1148.15
536.053527832,1163.25
536.338317871,1118.675
536.62322998,1076.5
536.90802002,1044.775
537.192810059,1072.85
537.477539062,1137.125
537.762329102,1162.95
538.047058105,1204.975
538.331726074,1222.25
538.616455078,1212.05
538.901123047,1200.375
539.18572998,1234.875
539.470397949,1231.275
539.755004883,1225.075
540.039550781,1189.05
540.32409668,1163.625
540.608703613,1198.825
540.893188477,1264.125
541.17767334,1283.775
541.462158203,1297.45
541.746643066,1248.275
542.031066895,1281.55
542.315429688,1309.725
542.59979248,1317.175
542.884216309,1290.85
543.168579102,1294.425
543.452941895,1299.975
543.737243652,1345.275
544.021484375,1378.525
544.305725098,1363.625
544.590026855,1344.625
544.874267578,1357.45
545.158447266,1415.8
545.442626953,1351.575
545.726806641,1256.425
546.010925293,1291.5
546.29510498,1303.875
546.579162598,1313.75
546.863220215,1347.6
547.147277832,1395.625
547.431335449,1453.6
547.715332031,1511.925
547.999328613,1600.05
548.283325195,1612.575
548.567260742,1481.775
548.851135254,1463.25
549.135070801,1436.05
549.419006348,1359.7
549.702819824,1452.2
549.986755371,1505.375
550.270507812,1475.3
550.554321289,1518.9
550.83807373,1527.6
551.121826172,1477.725
551.405517578,1504.975
551.689331055,1585.4
551.973022461,1780.275
552.256652832,1824.8
552.540344238,1737.35
552.823974609,1727.275
553.107543945,1714.8
553.391174316,1771.7
553.674743652,1809.05
553.958251953,1811.425
554.241821289,1826.675
554.525268555,1771.475
554.808776855,1771.05
555.092285156,1926.65
555.375671387,1994.225
555.659057617,1985.225
555.942504883,2010.9
556.225891113,2046.575
556.509216309,2012.4
556.792541504,1936.4
557.075866699,1993.575
557.359130859,2025.225
557.64239502,2031.175
557.92565918,2092.6
558.208862305,2073.65
558.49206543,2013.075
558.77532959,2027.8
559.058410645,2069.35
559.341552734,2047.55
559.624694824,2100.35
559.907775879,2165.875
560.190856934,2266.925
560.473937988,2258.075
560.756896973,2290.875
561.039978027,2313.825
561.322937012,2275.875
561.605895996,2272.35
561.88885498,2246.075
562.171813965,2240.3
562.454650879,2241.7
562.737548828,2267.175
563.020446777,2334.25
563.303283691,2341.5
563.58605957,2370.675
563.868896484,2388.025
564.151672363,2430.725
564.434387207,2453.175
564.717163086,2430.5
564.99987793,2464.95
565.282531738,2518.25
565.565185547,2455.025
565.847839355,2479.75
566.130432129,2574.225
566.413085938,2557.275
566.695678711,2565.025
566.978149414,2661.4
567.260681152,2774.45
567.543273926,2833.15
567.825744629,2757.975
568.108154297,2782.35
568.390686035,2886.625
568.673095703,2981.55
568.955505371,3029.85
569.237854004,3070.8
569.520202637,3285.1
569.802490234,3446.8
570.084838867,3439.175
570.367126465,3305.225
570.649414062,3324.5
570.93170166,3616.625
571.213928223,3677.125
571.496154785,3488.675
571.778381348,3668.275
572.06048584,3886.3
572.342590332,3499.625
572.624755859,3219.55
572.906860352,3274.875
573.188903809,3843.775
573.470947266,4060.175
573.752990723,3830.425
574.03503418,3926.275
574.317016602,4268.25
574.598937988,4069.075
574.88092041,3995.025
575.162841797,4140.75
575.444763184,3827.175
575.726623535,3604.35
576.008483887,3654.5
576.290344238,3990.275
576.572143555,4165.425
576.853881836,4219.05
577.135681152,4136.25
577.417419434,4184.4
577.699157715,4933.025
577.980895996,5074.65
578.262573242,4530.475
578.544128418,4119.05
578.825866699,4079.125
579.107421875,3817.225
579.388977051,3959.65
579.670593262,4314.875
579.952148438,4167.35
580.233642578,4248.55
580.515197754,4360.775
580.796691895,4094.9
581.078125,4270.85
581.359619141,5533.55
581.640991211,5625.25
581.922363281,4840.725
582.203796387,4910.6
582.485107422,4606.8
582.766418457,4270.025
583.047790527,4124.55
583.329040527,4047.975
583.610290527,3943.725
583.891540527,4045.425
584.172790527,4324.1
584.453918457,4341.225
584.735107422,4361.225
585.016235352,4762.525
585.297363281,4738.1
585.578552246,4587.85
585.859619141,4533.75
586.140625,4348.275
586.421630859,4250.9
586.702697754,4270.05
586.983642578,4470.0
587.264648438,4631.25
587.545654297,4583.925
587.826477051,4524.1
588.107421875,4357.075
588.388305664,4432.05
588.669189453,4497.7
588.950012207,4360.7
589.230834961,4295.05
589.511657715,4373.025
589.792358398,4473.15
590.073120117,4490.375
590.353881836,4438.975
590.63458252,4479.8
590.915283203,4438.9
591.195922852,4437.775
591.4765625,4487.975
591.757202148,4515.675
592.037780762,4518.975
592.31829834,4517.275
592.598937988,4707.85
592.879394531,4866.95
593.159912109,4786.025
593.440429688,4762.55
593.720825195,4730.675
594.001281738,4730.55
594.281677246,4643.025
594.562072754,4667.475
594.842407227,4751.6
595.122802734,4791.925
595.403137207,4780.55
595.683410645,4766.825
595.963623047,4772.1
596.243896484,4730.925
596.524169922,4756.25
596.804382324,4754.8
597.084533691,4791.325
597.364746094,4805.15
597.644836426,4861.625
597.924987793,4837.275
598.205078125,4816.5
598.485107422,4852.45
598.765197754,4949.225
599.045227051,4995.075
599.325195312,4947.0
599.605224609,4903.95
599.885192871,4945.025
600.165100098,4974.325
600.445007324,4935.225
600.724914551,4932.15
601.004760742,4961.2
601.284667969,4988.75
601.56451416,4959.725
601.844238281,4971.925
602.124084473,4998.625
602.403808594,4985.025
602.683532715,5025.025
602.963256836,5024.45
603.242919922,5065.0
603.522583008,5102.5
603.802246094,5094.825
604.081848145,5075.85
604.36138916,5042.65
604.641052246,5089.225
604.920532227,5039.5
605.200073242,5102.325
605.479614258,5132.2
605.759094238,5148.875
606.038574219,5160.5
606.317932129,5111.575
606.597412109,5107.025
606.87677002,5125.175
607.15612793,5182.175
607.435546875,5164.525
607.714782715,5176.925
607.99407959,5142.925
608.273376465,5140.525
608.552612305,5186.4
608.831848145,5193.25
609.111083984,5189.625
609.390258789,5197.925
609.669433594,5170.275
609.948608398,5229.525
610.227722168,5221.5
610.506713867,5196.55
610.785888672,5190.8
611.064880371,5182.5
611.34387207,5202.875
611.622924805,5235.325
611.901916504,5201.825
612.180847168,5183.625
612.459777832,5192.675
612.738647461,5188.2
613.01751709,5163.875
613.296447754,5137.65
613.575317383,5095.9
613.854064941,5054.7
614.132873535,4981.85
614.411621094,4933.6
614.690368652,4905.475
614.969177246,4856.875
615.247802734,4776.95
615.526489258,4770.475
615.805175781,4643.425
616.08380127,4545.15
616.362365723,4471.525
616.640991211,4429.875
616.919555664,4399.425
617.198059082,4511.5
617.4765625,4766.925
617.755126953,4896.925
618.033569336,4927.375
618.311950684,4928.2
618.590454102,4921.25
618.868774414,4910.775
619.147155762,4921.05
619.425598145,4911.325
619.703857422,4920.1
619.982177734,4946.725
620.260498047,4917.75
620.538757324,4913.65
620.816955566,4895.725
621.095214844,4860.575
621.373413086,4866.15
621.651550293,4933.95
621.929748535,4963.15
622.207824707,4943.7
622.485900879,4957.05
622.764038086,4952.9
623.042053223,4977.825
623.320007324,5009.125
623.598083496,5029.2
623.876037598,5013.55
624.153991699,5026.525
624.432006836,5054.325
624.709838867,5060.075
624.987731934,5059.25
625.265563965,5031.5
625.543395996,5072.425
625.821228027,5116.475
626.098999023,5105.925
626.376831055,5145.875
626.654541016,5170.6
626.932250977,5212.35
627.209960938,5246.725
627.487670898,5271.9
627.765319824,5303.875
628.04296875,5298.875
628.320495605,5306.65
628.598083496,5320.5
628.875671387,5360.45
629.153259277,5396.375
629.430725098,5448.325
629.708251953,5429.25
629.985656738,5455.175
630.263122559,5498.75
630.540588379,5525.975
630.817932129,5544.825
631.095275879,5577.925
631.372680664,5608.825
631.649963379,5657.7
631.927246094,5699.825
632.204589844,5728.075
632.481811523,5785.9
632.759033203,5860.975
633.036254883,5869.575
633.313415527,5974.0
633.590576172,6025.55
633.867736816,6117.725
634.144836426,6193.5
634.421875,6230.05
634.698913574,6292.275
634.976013184,6325.525
635.252990723,6411.175
635.529968262,6462.325
635.807006836,6533.15
636.08392334,6525.5
636.360839844,6418.875
636.637756348,6349.725
636.914611816,6299.65
637.191467285,6280.975
637.468261719,6346.9
637.745056152,6316.125
638.021789551,6345.1
638.298583984,6338.2
638.575317383,6394.85
638.851989746,6409.3
639.12878418,6403.35
639.405395508,6408.65
639.682006836,6429.325
639.958618164,6433.75
640.235229492,6424.6
640.511779785,6449.4
640.788330078,6416.75
641.064880371,6440.325
641.341308594,6413.325
641.617797852,6419.35
641.894226074,6416.275
642.170654297,6447.875
642.44708252,6477.15
642.723388672,6447.875
642.999755859,6446.8
643.276123047,6485.45
643.552429199,6446.775
643.828674316,6424.875
644.104919434,6416.975
644.381164551,6411.85
644.657348633,6420.775
644.933532715,6382.6
645.209716797,6415.55
645.485839844,6396.8
645.761901855,6405.925
646.038024902,6385.45
646.314086914,6430.65
646.590087891,6381.675
646.866149902,6411.0
647.142150879,6364.925
647.41809082,6355.125
647.694030762,6346.45
647.969970703,6326.25
648.245788574,6376.7
648.521728516,6358.8
648.797546387,6349.2
649.073303223,6368.875
649.349182129,6353.0
649.624938965,6339.45
649.900634766,6350.825
650.176391602,6338.125
650.452087402,6317.975
650.727783203,6303.3
651.003479004,6347.925
651.279052734,6320.65
651.554626465,6307.025
651.83026123,6282.325
652.105773926,6319.25
652.381286621,6283.1
652.656860352,6300.55
652.932312012,6320.85
653.207763672,6315.475
653.483215332,6348.3
653.758605957,6335.2
654.033935547,6310.875
654.309326172,6321.025
654.584716797,6344.8
654.859985352,6345.75
655.135253906,6357.825
655.410583496,6359.4
655.685791016,7353.45
655.9609375,11423.9
656.236206055,11199.575
656.511291504,7425.425
656.786437988,6526.675
657.061645508,6399.1
657.336669922,6372.525
657.611694336,6419.525
657.886779785,6448.9
658.161804199,6439.8
658.436828613,6403.325
658.711791992,6407.225
658.986755371,6435.55
659.261657715,6437.925
659.536621094,6427.5
659.811401367,6453.05
660.086303711,6470.1
660.36114502,6468.375
660.635864258,6453.9
660.910644531,6490.625
661.185424805,6493.25
661.460205078,6506.25
661.734863281,6504.55
662.009521484,6510.275
662.284179688,6485.575
662.558776855,6535.375
662.833435059,6571.075
663.108032227,6540.225
663.382568359,6539.65
663.657043457,6586.6
663.93157959,6625.8
664.206054688,6569.775
664.48046875,6617.9
664.755004883,6631.575
665.02935791,6654.15
665.303710938,6666.3
665.578125,6699.925
665.852416992,6680.85
666.126708984,6671.025
666.401062012,6709.475
666.675292969,6734.15
666.949462891,6706.825
667.223754883,6717.925
667.497924805,6748.2
667.772094727,6746.925
668.046264648,6722.325
668.3203125,6787.275
668.594421387,6793.675
668.868469238,6807.8
669.14251709,6823.7
669.416503906,6825.075
669.690551758,6833.075
669.964477539,6826.225
670.23840332,6847.375
670.512329102,6842.1
670.786254883,6802.075
671.060058594,6858.175
671.333984375,6896.5
671.607788086,6885.8
671.881530762,6902.5
672.155334473,6928.725
672.429077148,6917.15
672.702758789,6935.4
672.97644043,6928.4
673.25012207,6915.55
673.523742676,6904.0
673.797302246,6892.4
674.070922852,6971.0
674.344482422,6946.725
674.618041992,6939.9
674.891601562,6946.575
675.165100098,6952.925
675.438476562,6952.85
675.711975098,6970.025
675.985412598,6950.375
676.258789062,6943.5
676.532165527,6987.025
676.805480957,6980.35
677.078796387,6973.3
677.352111816,7011.0
677.625366211,6980.025
677.898620605,6958.175
678.171875,7001.725
678.445007324,6998.65
678.718200684,7020.55
678.991394043,6982.075
679.264404297,7014.15
679.537536621,7031.05
679.81060791,6999.1
680.083679199,7020.1
680.356689453,7011.475
680.629699707,7018.6
680.902648926,7008.025
681.175598145,7055.3
681.448547363,7073.6
681.721435547,7021.2
681.99420166,7022.15
682.267150879,6985.25
682.539916992,7062.65
682.812744141,7032.475
683.085510254,7018.0
683.358215332,7015.425
683.63092041,7010.775
683.903625488,7008.025
684.176330566,6985.525
684.448913574,6964.925
684.721557617,6951.125
684.99420166,7031.9
685.266662598,6996.8
685.539245605,7000.25
685.811767578,7031.275
686.084289551,7043.5
686.356689453,7031.675
686.629150391,7082.0
686.901550293,7072.975
687.17401123,7064.875
687.446350098,7082.5
687.718688965,7076.775
687.990966797,7117.05
688.263305664,7123.65
688.535522461,7093.4
688.807739258,7104.875
689.079956055,7126.8
689.352172852,7146.425
689.624328613,7119.25
689.896484375,7124.825
690.168518066,7108.4
690.440612793,7132.25
690.71270752,7151.0
690.984741211,7137.375
691.256713867,7170.475
691.528747559,7124.125
691.800720215,7124.575
692.072631836,7158.6
692.344543457,7159.575
692.616394043,7160.775
692.888244629,7177.675
693.160095215,7187.8
693.431945801,7216.5
693.703674316,7179.3
693.975463867,7138.375
694.247131348,7164.95
694.518859863,7170.825
694.790588379,7199.925
695.062255859,7182.85
695.33380127,7150.975
695.60546875,7147.575
695.87701416,7156.625
696.148498535,7159.775
696.42010498,7201.8
696.691589355,7194.425
696.96307373,7199.275
697.234558105,7243.975
697.50592041,7208.975
697.777282715,7218.4
698.048706055,7237.775
698.320068359,7243.65
698.591308594,7202.8
698.862670898,7184.025
699.133972168,7235.425
699.405151367,7197.425
699.676391602,7256.525
699.947570801,7192.375
700.21875,7198.5
700.489868164,7209.875
700.761047363,7192.5
701.032104492,7229.9
701.303100586,7170.35
701.57421875,7212.6
701.845214844,7200.375
702.116149902,7226.05
702.387207031,7186.375
702.65814209,7177.85
702.928955078,7217.35
703.199951172,7192.375
703.47076416,7140.0
703.741577148,7146.725
704.012451172,7165.45
704.28314209,7171.625
704.553955078,7169.95
704.824707031,7174.9
705.095397949,7202.625
705.366027832,7184.625
705.63671875,7182.5
705.907348633,7146.95
706.17791748,7149.725
706.448486328,7157.35
706.719055176,7173.525
706.989562988,7147.0
707.260131836,7156.625
707.530517578,7155.6
707.800964355,7130.225
708.071411133,7096.85
708.341796875,7112.525
708.612182617,7096.975
708.882446289,7073.5
709.152893066,7089.65
709.423156738,7101.4
709.693359375,7055.175
709.963623047,7066.975
710.233825684,7079.075
710.503967285,7032.725
710.774169922,7026.8
711.044311523,7004.55
711.31439209,7008.775
711.584533691,7042.3
711.854553223,7025.325
712.124572754,7001.95
712.39465332,6976.3
712.664611816,7005.475
712.934509277,7015.325
713.204467773,6997.525
713.474365234,6978.725
713.74420166,6973.725
714.014099121,6967.325
714.283874512,6947.875
714.553710938,6952.4
714.823486328,6946.25
715.093200684,6939.675
715.362915039,6942.175
715.632629395,6913.675
715.902282715,6882.875
716.171875,6876.425
716.441589355,6838.5
716.711181641,6841.825
716.980712891,6853.425
717.250244141,6829.45
717.519775391,6836.7
717.78918457,6831.525
718.058654785,6859.725
718.328125,6863.4
718.597473145,6800.3
718.866882324,6782.775
719.136230469,6806.475
719.405578613,6800.15
719.674865723,6826.7
719.944152832,6771.6
720.213439941,6736.65
720.48260498,6772.425
720.75177002,6780.675
721.020996094,6751.45
721.290100098,6757.675
721.559204102,6718.575
721.828308105,6724.85
722.097351074,6724.75
722.366455078,6679.175
722.635437012,6685.85
722.904418945,6640.1
723.173400879,6671.05
723.442321777,6670.325
723.711181641,6643.7
723.980102539,6646.175
724.248962402,6643.95
724.51776123,6596.775
724.786560059,6611.35
725.055358887,6600.025
725.324035645,6572.4
725.592834473,6591.625
725.86151123,6576.425
726.130187988,6573.0
726.398803711,6528.175
726.667419434,6527.375
726.935974121,6516.75
727.204528809,6464.8
727.473083496,6467.4
727.741638184,6445.15
728.010070801,6425.675
728.278564453,6418.35
728.546936035,6397.7
728.815368652,6323.05
729.08380127,6277.875
729.352111816,6250.325
729.620361328,6181.45
729.88873291,6214.075
730.156982422,6241.775
730.425231934,6237.425
730.693481445,6234.525
730.961669922,6272.825
731.229797363,6289.075
731.49798584,6298.525
731.766113281,6325.2
732.034118652,6347.95
732.302246094,6380.85
732.570251465,6400.35
732.838256836,6393.3
733.106262207,6468.875
733.374145508,6477.325
733.642089844,6507.9
733.909973145,6511.975
734.177856445,6564.7
734.445678711,6621.4
734.713562012,6662.525
734.981323242,6666.275
735.249084473,6712.725
735.516845703,6825.9
735.784545898,6860.65
736.052185059,6860.5
736.319885254,6930.425
736.587524414,6961.55
736.855102539,6967.55
737.122619629,7064.8
737.390197754,7065.85
737.657714844,7146.925
737.925170898,7181.525
738.192749023,7255.575
738.460144043,7291.75
738.727539062,7325.45
738.994995117,7376.525
739.262329102,7457.575
739.529663086,7527.0
739.79699707,7525.45
740.06427002,7542.025
740.331481934,7584.0
740.598754883,7615.2
740.865905762,7635.325
741.133056641,7717.975
741.40032959,7719.075
741.667358398,7764.425
741.934448242,7784.875
742.201599121,7814.925
742.468566895,7879.2
742.735534668,7910.5
743.002563477,7924.825
743.26953125,7920.25
743.536437988,7945.875
743.803405762,8018.475
744.0703125,7980.375
744.337097168,8031.675
744.604003906,7977.925
744.870727539,8057.65
745.137512207,8052.575
745.40423584,8065.15
745.670959473,8029.175
745.93762207,8047.1
746.204284668,8054.3
746.470947266,8075.55
746.737548828,8065.0
747.004089355,8072.025
747.270751953,8060.225
747.53717041,8087.3
747.803710938,8002.9
748.070251465,8006.9
748.336608887,8004.325
748.603027344,7965.925
748.869445801,7964.35
749.135803223,7986.25
749.402099609,7984.625
749.668457031,7971.1
749.934753418,7962.875
750.20098877,7917.05
750.467224121,7932.95
750.733459473,7909.025
750.999572754,7914.55
751.26574707,7837.275
751.531860352,7856.225
751.797912598,7814.675
752.064025879,7763.15
752.330078125,7781.075
752.596069336,7759.9
752.862060547,7718.425
753.127990723,7726.575
753.393920898,7683.4
753.659912109,7652.225
753.925720215,7709.375
754.19152832,7662.225
754.457397461,7617.975
754.723144531,7588.4
754.988952637,7568.575
755.254699707,7574.65
755.520385742,7565.45
755.786071777,7555.425
756.051696777,7520.475
756.317382812,7517.8
756.582946777,7493.95
756.848510742,7502.8
757.114074707,7474.875
757.379577637,7436.15
757.645080566,7481.575
757.910583496,7451.575
758.175964355,7406.75
758.441345215,7389.625
758.706848145,7286.425
758.972106934,7314.35
759.237426758,7288.35
759.502807617,7331.5
759.768005371,7313.85
760.03326416,7266.575
760.298522949,7218.55
760.563659668,7246.525
760.828857422,7217.05
761.093994141,7249.825
761.359130859,7194.3
761.624206543,7159.0
761.889282227,7146.425
762.15423584,7113.8
762.419250488,7113.325
762.684265137,7099.775
762.949157715,7078.175
763.214050293,7060.1
763.479003906,7051.075
763.743835449,7043.6
764.008666992,7009.05
764.2734375,7025.55
764.538208008,7052.3
764.802978516,7061.35
765.067687988,7019.075
765.332397461,7032.375
765.597045898,7002.35
765.861694336,6966.575
766.126342773,6958.8
766.390930176,6935.475
766.655395508,6916.425
766.920043945,6892.075
767.184509277,6879.625
767.448974609,6875.45
767.713439941,6871.55
767.977783203,6849.35
768.2421875,6905.225
768.506591797,6830.15
768.770874023,6910.825
769.03515625,6844.075
769.299499512,6860.0
769.563720703,6867.725
769.827941895,6811.15
770.092163086,6827.425
770.356323242,6806.25
770.620483398,6819.6
770.88458252,6829.075
771.148681641,6817.025
771.412719727,6792.9
771.676757812,6807.65
771.940734863,6760.075
772.204711914,6756.325
772.468688965,6744.85
772.73260498,6724.025
772.996459961,6732.45
773.260314941,5989.225
773.524169922,802.525
773.787963867,140.275
774.051696777,123.725
774.315551758,118.3
774.579223633,119.525
774.842895508,121.25
775.106567383,121.95
775.370239258,117.2
775.633789062,123.375
775.897399902,127.775
776.160949707,117.725
776.424499512,119.9
776.687988281,123.65
776.951477051,126.125
777.214904785,120.1
777.47833252,122.175
