191.299911499,99.5
191.603515625,100.675
191.907119751,94.475
192.210693359,104.8
192.514251709,98.3
192.817810059,103.075
193.121368408,100.025
193.42489624,106.1
193.728408813,99.775
194.031936646,99.725
194.33543396,93.675
194.638916016,109.225
194.94241333,96.375
195.245880127,98.25
195.549331665,95.775
195.852767944,101.15
196.156204224,180.625
196.459625244,175.5
196.763015747,180.275
197.066436768,183.925
197.369812012,179.925
197.673187256,181.3
197.9765625,176.425
198.279922485,181.325
198.583251953,172.7
198.886581421,180.9
199.18989563,184.825
199.493209839,182.45
199.79649353,173.725
200.09979248,185.85
200.403076172,178.9
200.706314087,183.6
201.009567261,179.275
201.312820435,185.55
201.616027832,172.25
201.919235229,172.875
202.222457886,177.95
202.525634766,172.875
202.828826904,168.275
203.132003784,170.975
203.435150146,173.275
203.738296509,172.55
204.041412354,169.975
204.344558716,177.325
204.647659302,175.4
204.950759888,177.05
205.253845215,177.6
205.556930542,174.775
205.859985352,173.55
206.163024902,172.9
206.466079712,174.025
206.769104004,185.325
207.072113037,175.8
207.375137329,172.375
207.678131104,177.075
207.981109619,177.95
208.284088135,169.65
208.587036133,180.3
208.889984131,180.45
209.19291687,179.525
209.495849609,179.35
209.798751831,183.275
210.101654053,179.95
210.404556274,184.775
210.707427979,180.2
211.010269165,182.25
211.31312561,186.8
211.615982056,186.525
211.918807983,184.375
212.221618652,182.575
212.524429321,180.45
212.827224731,187.9
213.130004883,185.8
213.432769775,186.025
213.735534668,184.6
214.038269043,190.8
214.341003418,186.85
214.643737793,192.1
214.946456909,190.825
215.249145508,196.075
215.551834106,198.05
215.854507446,195.575
216.157165527,194.1
216.45980835,197.675
216.762451172,204.325
217.065078735,201.525
217.36769104,201.925
217.670303345,206.4
217.972885132,207.075
218.275466919,212.875
218.578048706,205.875
218.880599976,215.925
219.183120728,216.775
219.485656738,222.125
219.788192749,240.125
220.090682983,255.275
220.393188477,281.35
220.695663452,321.05
220.998138428,341.025
221.300582886,391.4
221.603042603,420.725
221.905487061,470.575
222.207901001,530.7
222.510299683,587.4
222.812728882,646.925
223.115097046,724.575
223.41746521,799.95
223.719848633,864.875
224.022171021,933.4
224.324508667,1014.325
224.626846313,1101.05
224.929168701,1166.75
225.231460571,1266.125
225.533737183,1330.65
225.836013794,1410.65
226.138290405,1474.1
226.440536499,1548.05
226.742767334,1602.1
227.044998169,1660.725
227.347213745,1734.275
227.649429321,1781.7
227.951629639,1828.9
228.253799438,1877.425
228.555953979,1916.2
228.858123779,1958.9
229.160263062,1987.825
229.462371826,2017.35
229.764511108,2062.975
230.066619873,2059.55
230.36869812,2111.75
230.670776367,2132.525
230.972854614,2168.225
231.274902344,2207.375
231.576950073,2240.4
231.878967285,2262.5
232.180999756,2306.15
232.48298645,2322.1
232.784988403,2372.525
233.086975098,2415.75
233.388946533,2445.65
233.69090271,2478.725
233.992858887,2523.625
234.294769287,2549.0
234.596694946,2577.375
234.898605347,2617.0
235.200500488,2639.4
235.502380371,2652.95
235.804244995,2681.9
236.106109619,2689.35
236.407958984,2700.175
236.709777832,2746.725
237.011581421,2748.85
237.313400269,2763.3
237.615203857,2783.925
237.916976929,2809.025
238.21875,2805.475
238.520507812,2837.375
238.822250366,2853.675
239.12399292,2867.55
239.425704956,2884.225
239.727401733,2870.7
240.02911377,2891.2
240.330780029,2914.5
240.632446289,2924.625
240.93409729,2950.65
241.23576355,2973.3
241.537384033,2997.325
241.839004517,3039.5
242.140594482,3029.675
242.442199707,3089.2
242.743774414,3101.05
243.045333862,3139.425
243.346923828,3176.425
243.648452759,3190.95
243.949966431,3224.375
244.251495361,3263.9
244.552993774,3305.725
244.854492188,3326.475
245.155975342,3342.25
245.457443237,3382.05
245.758880615,3397.775
246.060333252,3433.25
246.36177063,3450.125
246.66317749,3485.2
246.964569092,3502.125
247.265945435,3533.325
247.567337036,3574.65
247.86869812,3624.65
248.170059204,3664.5
248.471389771,3695.2
248.772705078,3751.625
249.074035645,3810.425
249.375335693,3868.65
249.676620483,3932.35
249.977890015,3988.975
250.279159546,4077.9
250.58039856,4142.5
250.881637573,4192.225
251.182876587,4300.775
251.484069824,4402.25
251.785263062,4449.7
252.086456299,4572.775
252.387619019,4641.2
252.688781738,4737.45
252.989929199,4802.575
253.291061401,4906.525
253.592178345,4983.975
253.893280029,5078.15
254.194366455,5134.7
254.49546814,5190.325
254.796524048,5248.725
255.097579956,5315.6
255.398620605,5394.275
255.699645996,5440.575
256.000640869,5458.1
256.30166626,5510.675
256.602661133,5579.5
256.903656006,5569.6
257.204589844,5586.5
257.505523682,5596.6
257.80645752,5657.075
258.107391357,5618.9
258.408294678,5639.575
258.709228516,5612.5
259.010070801,5559.3
259.310943604,5591.6
259.611846924,5523.65
259.912658691,5491.725
260.213500977,5470.425
260.514343262,5461.275
260.815124512,5382.525
261.115936279,5352.1
261.416717529,5324.825
261.717468262,5319.2
262.018218994,5291.9
262.318969727,5274.2
262.619689941,5316.3
262.920410156,5331.4
263.221130371,5359.575
263.521789551,5394.75
263.822479248,5436.175
264.123138428,5449.2
264.42376709,5455.525
264.72442627,5444.95
265.025054932,5458.775
265.325622559,5467.975
265.626251221,5446.9
265.926818848,5408.225
266.227386475,5352.75
266.527954102,5330.075
266.828460693,5306.525
267.12902832,5226.225
267.429534912,5214.65
267.730010986,5149.275
268.030517578,5099.55
268.330993652,5062.675
268.631439209,5022.5
268.931915283,4980.525
269.232299805,4948.15
269.532745361,4925.6
269.8331604,4873.475
270.133544922,4840.25
270.433929443,4843.675
270.734313965,4818.225
271.034637451,4824.975
271.334991455,4772.525
271.635314941,4802.525
271.935638428,4796.3
272.235931396,4836.8
272.536254883,4881.2
272.836486816,4907.275
273.136749268,4942.325
273.437011719,5034.95
273.737213135,5099.275
274.037445068,5174.275
274.337677002,5215.35
274.6378479,5286.625
274.938049316,5387.075
275.238220215,5468.825
275.538360596,5553.625
275.838500977,5626.625
276.138641357,5717.95
276.438751221,5759.3
276.738830566,5848.2
277.03894043,5881.125
277.338989258,5986.7
277.639038086,6055.075
277.939056396,6095.05
278.239105225,6129.65
278.539093018,6230.125
278.839141846,6258.075
279.139129639,6280.275
279.439086914,6348.525
279.739044189,6395.525
280.039001465,6447.25
280.338928223,6483.9
280.63885498,6520.55
280.938781738,6566.55
281.238647461,6572.15
281.538513184,6553.05
281.838409424,6610.325
282.138244629,6651.55
282.438079834,6658.5
282.737945557,6675.525
283.037719727,6678.925
283.337524414,6682.925
283.637298584,6712.025
283.937072754,6702.75
284.236816406,6727.725
284.536560059,6694.725
284.836303711,6697.4
285.136016846,6742.7
285.43572998,6758.275
285.735412598,6742.825
286.035064697,6732.95
286.334747314,6783.85
286.634368896,6785.675
286.933990479,6694.075
287.233642578,6675.775
287.533203125,6657.75
287.832824707,6604.75
288.132385254,6535.15
288.431945801,6430.325
288.731506348,6303.0
289.031036377,6171.65
289.330566406,6060.6
289.630065918,6062.725
289.92956543,6027.625
290.229034424,6096.95
290.528503418,6234.175
290.827941895,6368.2
291.127380371,6492.05
291.42678833,6598.2
291.726226807,6697.425
292.025604248,6729.25
292.324981689,6733.175
292.624359131,6751.6
292.923736572,6757.025
293.223052979,6790.65
293.522369385,6795.825
293.821685791,6732.775
294.12097168,6717.275
294.420257568,6698.375
294.719543457,6683.025
295.018768311,6683.925
295.318023682,6604.45
295.617248535,6582.25
295.916442871,6511.025
296.215667725,6441.125
296.514862061,6358.675
296.813995361,6165.9
297.11315918,5992.2
297.412322998,5882.975
297.711425781,5839.75
298.010559082,5993.275
298.309631348,6166.725
298.608734131,6345.5
298.907806396,6504.325
299.206848145,6600.125
299.505889893,6679.625
299.804901123,6770.925
300.103912354,6823.575
300.402954102,6887.6
300.701904297,6927.825
301.00088501,6987.1
301.299835205,7073.6
301.5987854,7066.25
301.897735596,7151.475
302.196624756,7189.525
302.495513916,7258.15
302.794403076,7293.325
303.093292236,7315.975
303.392120361,7378.625
303.690979004,7444.275
303.989837646,7478.3
304.288604736,7538.3
304.587402344,7536.325
304.886199951,7566.4
305.184967041,7593.9
305.483734131,7648.0
305.782501221,7668.5
306.081176758,7665.725
306.37991333,7703.2
306.678619385,7717.05
306.977294922,7730.025
307.275970459,7741.15
307.574645996,7779.575
307.873260498,7715.75
308.171875,7741.525
308.470489502,7748.925
308.769104004,7687.775
309.067687988,7681.5
309.366241455,7716.85
309.664794922,7629.9
309.963348389,7676.125
310.261871338,7660.25
310.560394287,7659.625
310.858856201,7679.825
311.157348633,7699.65
311.455810547,7708.15
311.754272461,7733.85
312.052703857,7821.025
312.351135254,7823.7
312.649536133,7815.725
312.947937012,7815.9
313.246307373,7810.6
313.544647217,7841.1
313.843017578,7796.35
314.141387939,7781.425
314.439697266,7790.625
314.738006592,7703.125
315.036315918,7664.6
315.334564209,7613.475
315.6328125,7546.025
315.931091309,7508.325
316.229309082,7392.075
316.527526855,7276.675
316.825744629,7260.45
317.123901367,7169.075
317.422088623,7129.3
317.720245361,7135.45
318.0184021,7125.125
318.316497803,7189.525
318.614654541,7195.575
318.912750244,7283.55
319.21081543,7309.575
319.50894165,7340.125
319.806945801,7336.35
320.104980469,7301.175
320.403045654,7321.15
320.701049805,7280.075
320.999023438,7260.175
321.297027588,7244.925
321.595001221,7216.225
321.892913818,7171.55
322.190887451,7125.25
322.488830566,7074.375
322.786712646,7022.9
323.084625244,6978.15
323.382507324,6931.775
323.680358887,6889.0
323.978210449,6815.375
324.276062012,6756.25
324.573852539,6737.9
324.871643066,6689.525
325.169464111,6642.375
325.467224121,6577.825
325.764984131,6493.55
326.062744141,6435.75
326.360473633,6391.6
326.658203125,6328.1
326.955871582,6268.725
327.253570557,6234.025
327.551239014,6185.25
327.848907471,6136.075
328.146514893,6043.5
328.444152832,6006.875
328.741790771,5944.125
329.039367676,5916.9
329.336914062,5851.8
329.634521484,5783.25
329.932067871,5755.4
330.229553223,5703.65
330.527160645,5654.575
330.824615479,5618.875
331.12210083,5541.25
331.419586182,5445.55
331.717041016,5385.675
332.014465332,5328.325
332.311920166,5311.325
332.609313965,5264.875
332.906707764,5263.025
333.204101562,5215.7
333.501495361,5269.875
333.798828125,5289.375
334.096160889,5311.65
334.39352417,5368.9
334.690795898,5387.725
334.988098145,5474.025
335.285400391,5504.4
335.582641602,5513.4
335.879882812,5548.375
336.177124023,5547.175
336.474334717,5622.05
336.77154541,5604.55
337.068725586,5621.275
337.365905762,5654.875
337.66305542,5632.15
337.960205078,5654.775
338.257324219,5694.7
338.554443359,5676.125
338.8515625,5704.725
339.148590088,5689.85
339.445648193,5700.95
339.742736816,5674.225
340.039764404,5679.7
340.336761475,5651.05
340.63381958,5611.6
340.930755615,5567.975
341.227722168,5505.3
341.524688721,5425.475
341.821624756,5387.85
342.118560791,5420.525
342.415496826,5498.05
342.712402344,5606.725
343.009246826,5749.7
343.306121826,5829.775
343.602966309,5869.9
343.899810791,5955.625
344.196624756,6025.55
344.493438721,6056.4
344.79019165,6097.575
345.086975098,6155.925
345.383758545,6181.05
345.680480957,6172.75
345.977203369,6168.275
346.273956299,6226.25
346.570617676,6210.35
346.86730957,6208.85
347.163970947,6215.925
347.460601807,6234.375
347.757232666,6251.35
348.053894043,6252.075
348.350463867,6163.275
348.647064209,6150.575
348.943634033,6152.325
349.24017334,6174.825
349.536712646,6118.525
349.833251953,6122.425
350.129760742,6083.875
350.426208496,6093.775
350.722747803,6069.425
351.019195557,6050.45
351.315612793,6016.9
351.612060547,5991.925
351.908508301,5944.25
352.204864502,5899.675
352.501281738,5850.6
352.797637939,5794.1
353.093963623,5709.65
353.390319824,5674.425
353.686645508,5592.875
353.982940674,5552.675
354.27923584,5500.45
354.575531006,5443.15
354.871765137,5451.3
355.167999268,5423.725
355.464233398,5422.0
355.760437012,5442.65
356.056640625,5442.95
356.352813721,5450.1
356.648956299,5437.05
356.945129395,5466.9
357.241271973,5470.1
357.537384033,5484.575
357.833496094,5426.675
358.129577637,5424.4
358.425628662,5406.8
358.721679688,5365.675
359.017730713,5336.575
359.313720703,5304.45
359.609710693,5289.725
359.905761719,5229.325
360.201721191,5193.475
360.497650146,5144.375
360.793609619,5126.775
361.089538574,5057.375
361.385437012,5015.325
361.681365967,4973.225
361.977233887,4934.6
362.273071289,4850.0
362.568908691,4783.675
362.864746094,4688.4
363.160552979,4557.55
363.456359863,4407.8
363.752166748,4290.7
364.047912598,4195.625
364.343658447,4186.625
364.639434814,4213.85
364.935119629,4239.425
365.230834961,4282.65
365.526550293,4324.125
365.822174072,4339.3
366.117858887,4343.2
366.413482666,4381.15
366.709075928,4409.175
367.004730225,4321.75
367.300292969,4323.75
367.595855713,4363.1
367.891448975,4267.8
368.186981201,4187.55
368.482513428,4133.525
368.778015137,4139.425
369.073547363,4112.55
369.36895752,4107.05
369.664428711,4031.95
369.95993042,3914.575
370.255310059,3891.5
370.550720215,3857.375
370.846160889,3830.575
371.14151001,3802.3
371.436859131,3781.2
371.73223877,3768.975
372.027557373,3724.525
372.322875977,3681.975
372.618164062,3652.3
372.913482666,3627.625
373.208709717,3613.425
373.503967285,3545.6
373.799194336,3512.85
374.094421387,3512.375
374.389648438,3491.2
374.684844971,3468.6
374.979980469,3525.475
375.275146484,3515.425
375.570281982,3557.9
375.865386963,3574.825
376.160522461,3515.775
376.455596924,3523.775
376.750640869,3592.6
377.045715332,3614.525
377.340759277,3641.75
377.635772705,3687.5
377.93081665,3734.975
378.225769043,3784.35
378.520751953,3839.825
378.815734863,3801.575
379.110656738,3949.625
379.405548096,4099.05
379.700500488,3946.35
379.995391846,3767.55
380.290252686,3803.025
380.585083008,3901.7
380.879974365,3947.0
381.17477417,3860.75
381.469543457,3806.85
381.764404297,3805.975
382.059143066,3824.85
382.353912354,3921.4
382.648651123,3987.45
382.943389893,3985.475
383.238067627,3843.275
383.532775879,3821.85
383.827484131,3776.675
384.12210083,3779.7
384.416778564,3718.05
384.711425781,3646.7
385.006011963,3663.325
385.300628662,3651.5
385.595184326,3731.325
385.88973999,3825.775
386.184295654,3918.325
386.478820801,3965.225
386.77331543,4062.525
387.067840576,4149.25
387.362335205,4235.35
387.656768799,4302.275
387.951202393,4332.85
388.245635986,4403.475
388.540039062,4454.65
388.834472656,4527.35
389.128875732,4431.625
389.423187256,4220.875
389.717559814,4192.775
390.011871338,4271.3
390.306182861,4311.25
390.600463867,4312.975
390.894775391,4377.9
391.189025879,4410.775
391.48324585,4418.225
391.777526855,4430.1
392.071685791,4632.175
392.365875244,4711.25
392.660064697,4793.975
392.95425415,5082.1
393.248382568,5056.9
393.542510986,4652.675
393.836608887,4480.725
394.130706787,4491.25
394.424804688,4433.3
394.71887207,4563.525
395.012878418,4537.175
395.306915283,4434.45
395.600921631,4358.0
395.894927979,4323.525
396.188903809,4389.125
396.482879639,4379.475
396.776794434,4580.025
397.070739746,4550.85
397.364654541,4555.55
397.658538818,4933.325
397.952423096,4935.2
398.246307373,4899.25
398.540100098,5390.8
398.833953857,5284.825
399.127746582,4817.625
399.421508789,4846.975
399.715301514,4788.8
400.009063721,4693.75
400.30279541,4576.125
400.596496582,4483.2
400.890258789,4644.825
401.183929443,4723.0
401.47756958,4621.125
401.771240234,4392.9
402.064880371,4413.125
402.35848999,4474.65
402.652130127,4365.375
402.945678711,4444.875
403.239257812,4391.5
403.532775879,4335.175
403.82635498,4372.275
404.119842529,4298.95
404.413360596,4288.9
404.706848145,4336.5
405.000274658,4276.375
405.293762207,4361.075
405.587188721,4402.775
405.880584717,4261.825
406.17401123,4086.775
406.467407227,3902.175
406.760742188,3921.05
407.054107666,3944.9
407.347442627,3889.875
407.640716553,3869.525
407.934051514,3926.175
408.227325439,3984.525
408.520568848,4180.675
408.813842773,4261.925
409.107086182,4065.625
409.400238037,4045.85
409.693450928,3965.45
409.986633301,4080.25
410.279754639,4006.8
410.572875977,3734.75
410.86605835,3658.475
411.159118652,3690.225
411.452209473,3687.375
411.745330811,3568.825
412.038360596,3513.775
412.331390381,3536.0
412.624420166,3576.6
412.917388916,3490.4
413.210388184,3327.025
413.503387451,3296.325
413.796295166,3204.6
414.089233398,3048.175
414.382141113,2981.025
414.675048828,2972.35
414.967926025,2986.55
415.260803223,2943.9
415.55368042,2972.55
415.846466064,2932.625
416.139282227,3002.275
416.432098389,3120.275
416.724853516,3107.65
417.017608643,3052.55
417.31036377,3068.125
417.603088379,3181.475
417.895782471,3165.525
418.188476562,3134.3
418.481140137,3195.75
418.773803711,3232.025
419.066436768,3206.375
419.359039307,3293.175
419.651641846,3287.275
419.944244385,3291.325
420.236816406,3259.6
420.529327393,3426.6
420.821899414,3494.95
421.114379883,3440.2
421.406860352,3687.825
421.699371338,3892.275
421.991821289,3826.45
422.284240723,3646.525
422.576721191,3531.125
422.869110107,3421.675
423.161468506,3387.525
423.453857422,3390.375
423.74621582,3296.15
424.038543701,3166.075
424.330871582,3129.575
424.623168945,3081.625
424.915435791,3213.875
425.207702637,3174.75
425.499969482,3121.575
425.792205811,3073.275
426.084411621,2843.3
426.376617432,2912.95
426.668762207,2982.325
426.9609375,2862.725
427.253082275,2981.675
427.545196533,3338.15
427.837310791,3101.525
428.129425049,2834.725
428.421447754,3030.4
428.713531494,3046.55
429.005554199,3032.0
429.297576904,3035.425
429.589599609,3419.05
429.881561279,3698.35
430.173522949,3502.175
430.465484619,3475.8
430.757415771,3523.05
431.049316406,3326.975
431.341186523,3115.5
431.633117676,3031.625
431.924957275,2747.5
432.21673584,2665.55
432.508636475,2796.6
432.800415039,2809.775
433.092163086,2693.6
433.383972168,2680.675
433.675689697,3314.125
433.967437744,3750.675
434.259155273,2905.5
434.550872803,2626.5
434.842498779,2684.7
435.134185791,2798.325
435.425842285,2815.525
435.717437744,2726.675
436.009063721,2565.15
436.30065918,2698.65
436.592224121,3007.0
436.883758545,2828.35
437.175323486,2582.0
437.466827393,2572.25
437.758331299,2574.05
438.049804688,2596.325
438.341247559,2646.775
438.63269043,2721.65
438.924163818,2721.475
439.215515137,2678.225
439.50692749,2588.2
439.798309326,2591.625
440.089660645,2594.9
440.380981445,2519.425
440.672332764,2513.975
440.963623047,2749.425
441.254882812,3167.975
441.546173096,3334.125
441.837402344,3092.225
442.128631592,2934.025
442.41986084,2907.125
442.711029053,2803.375
443.002197266,2852.375
443.293365479,3032.15
443.584503174,3154.4
443.875610352,3118.4
444.166717529,2898.6
444.457794189,2937.175
444.748840332,2916.025
445.039916992,2883.05
445.330932617,2967.5
445.621948242,2814.25
445.912963867,2642.85
446.203918457,2856.65
446.494812012,3065.225
446.785827637,2874.325
447.076721191,2723.3
447.367584229,2694.525
447.658447266,2661.6
447.949371338,2722.9
448.24017334,2607.8
448.530975342,2562.5
448.821838379,2692.55
449.112579346,2772.75
449.40335083,2706.25
449.694152832,2741.475
449.984863281,2742.575
450.27557373,2686.925
450.56628418,2736.6
450.856933594,2748.125
451.147583008,2623.175
451.438262939,2510.3
451.728881836,2696.825
452.019470215,2776.775
452.310089111,2591.55
452.600646973,2613.25
452.891174316,2677.125
453.181732178,2501.925
453.472229004,2386.05
453.762695312,2491.15
454.053222656,2506.625
454.343658447,2400.6
454.634063721,2347.675
454.924530029,2495.6
455.214935303,2622.35
455.505279541,2683.0
455.795715332,2564.8
456.086029053,2373.175
456.376312256,2369.575
456.666687012,2406.375
456.956939697,2485.625
457.247192383,2499.4
457.537445068,2550.25
457.827728271,2723.3
458.117919922,2666.9
458.408081055,2592.5
458.698303223,2750.2
458.988433838,2687.775
459.278564453,2532.05
459.568725586,2783.925
459.858825684,2896.2
460.148864746,2609.775
460.438995361,2568.5
460.729034424,2604.15
461.019042969,2618.375
461.309082031,2804.975
461.599060059,2689.8
461.889007568,2279.775
462.179016113,2130.6
462.468933105,2339.575
462.75881958,2445.725
463.048736572,2219.375
463.338592529,2459.95
463.628448486,2778.325
463.918365479,2499.775
464.2081604,2652.375
464.497924805,2622.1
464.787780762,2722.5
465.077514648,3008.85
465.367218018,2661.275
465.657012939,2845.75
465.946685791,3204.575
466.236358643,2849.375
466.526092529,2369.375
466.815734863,2369.725
467.105316162,2307.05
467.394927979,2322.85
467.684570312,2212.275
467.974121094,2290.25
468.263671875,2376.15
468.553222656,2197.025
468.842773438,2106.025
469.132232666,1993.9
469.42175293,2019.475
469.711212158,2004.675
470.000640869,1885.3
470.290100098,1937.45
470.579498291,1968.325
470.868835449,1968.625
471.158294678,1932.475
471.447601318,1928.625
471.736907959,1976.625
472.026275635,2037.65
472.315551758,2022.475
472.604797363,2017.25
472.894104004,2148.725
473.183319092,2240.55
473.47253418,2219.425
473.761779785,2221.775
474.05090332,2147.2
474.340087891,2110.15
474.629241943,2050.1
474.918365479,2198.05
475.207427979,2446.675
475.496551514,2464.45
475.785614014,2234.0
476.074645996,2056.1
476.363708496,2139.3
476.652679443,2263.025
476.941650391,2107.05
477.230682373,1962.125
477.519622803,1963.225
477.808502197,2097.5
478.097412109,2336.3
478.386352539,2291.525
478.675201416,2045.25
478.964050293,1968.025
479.25289917,2126.575
479.541717529,2166.575
479.830474854,2028.775
480.11932373,2339.7
480.408050537,2498.85
480.696777344,2160.875
480.985534668,2047.775
481.274200439,2119.25
481.562866211,2352.275
481.851593018,2380.95
482.140197754,2320.95
482.428833008,2176.125
482.717468262,1987.85
483.006011963,2012.875
483.294586182,2111.9
483.5831604,2153.725
483.871673584,2030.95
484.16015625,2154.85
484.448699951,2359.575
484.7371521,2397.15
485.02557373,2400.75
485.314025879,2169.125
485.602416992,3336.2
485.890777588,11945.975
486.179199219,10686.05
486.467559814,2855.875
486.755859375,2076.525
487.044219971,2411.1
487.332519531,2585.025
487.620758057,2212.75
487.908966064,1988.05
488.197265625,1803.825
488.485473633,1717.95
488.773651123,1815.6
489.061859131,1818.25
489.350006104,1759.475
489.638122559,1718.725
489.926300049,1726.925
490.214355469,1683.225
490.502441406,1642.1
490.790527344,1583.9
491.078552246,1747.0
491.366546631,1745.05
491.654602051,1540.55
491.942565918,1608.05
492.230499268,1649.225
492.518493652,1614.825
492.806396484,1640.375
493.094268799,1571.7
493.382202148,1600.25
493.670074463,1693.0
493.957885742,1557.875
494.245727539,1563.2
494.533508301,1703.8
494.821289062,1617.6
495.109100342,1476.2
495.396850586,1425.675
495.684539795,1387.025
495.972290039,1578.575
496.25994873,1867.725
496.547607422,1881.8
496.835296631,1725.125
497.122894287,1429.525
497.410522461,1371.075
497.6980896,1363.6
497.985687256,1346.85
498.273223877,1433.0
498.560760498,1487.075
498.848266602,1501.425
499.135772705,1474.775
499.423217773,1527.675
499.710693359,1603.925
499.998138428,1565.775
500.285522461,1413.725
500.572937012,1344.55
500.860290527,1385.65
501.147644043,1462.325
501.434997559,1670.05
501.722290039,1552.475
502.00958252,1364.575
502.296875,1586.525
502.584106445,1565.1
502.871337891,1419.825
503.158599854,1490.45
503.445770264,1550.6
503.732910156,1521.575
504.020141602,1363.075
504.307220459,1338.975
504.594329834,1369.025
504.881469727,1319.675
505.168518066,1383.625
505.455535889,1439.075
505.742614746,1336.35
506.029632568,1266.0
506.316589355,1427.7
506.603637695,1505.65
506.890563965,1341.775
507.177459717,1195.525
507.464385986,1120.2
507.751312256,1314.6
508.038146973,1393.925
508.325012207,1270.35
508.611877441,1319.675
508.898681641,1334.175
509.185424805,1184.9
509.472259521,1148.125
509.759002686,1218.75
510.045715332,1257.65
510.332458496,1204.825
510.619140625,1251.475
510.905761719,1176.75
511.192504883,1168.55
511.479095459,1203.2
511.765686035,1161.5
512.052307129,1089.825
512.338928223,1047.075
512.625427246,1098.425
512.91204834,1151.4
513.198486328,1127.375
513.484985352,1094.225
513.77142334,1030.85
514.057922363,1076.125
514.344299316,1079.65
514.63079834,1043.9
514.917175293,1029.925
515.203552246,945.7
515.489868164,921.2
515.776245117,1030.4
516.0625,1061.325
516.348815918,992.8
516.635070801,1022.55
516.921325684,1057.075
517.207580566,1009.95
517.493774414,933.525
517.779968262,934.225
518.066101074,968.6
518.352294922,929.275
518.638366699,927.975
518.924499512,1001.075
519.210632324,1058.725
519.496643066,1029.3
519.782714844,946.4
520.068786621,924.1
520.354736328,885.2
520.640686035,854.275
520.926757812,891.4
521.212646484,953.25
521.498535156,954.55
521.784484863,912.6
522.0703125,857.625
522.356262207,871.075
522.642089844,932.5
522.927856445,931.3
523.213684082,928.05
523.499511719,907.6
523.78527832,941.275
524.070983887,988.4
524.356750488,971.0
524.64239502,935.8
524.928039551,928.8
525.213806152,945.675
525.499389648,925.9
525.784973145,955.925
526.070617676,995.125
526.356140137,971.975
526.641723633,969.15
526.927307129,1025.575
527.212768555,1020.15
527.498291016,1010.05
527.783752441,1013.575
528.069213867,993.4
528.354675293,1011.525
528.640014648,1140.375
528.925476074,1196.95
529.21081543,1139.925
529.496154785,1119.725
529.781555176,1083.85
530.066833496,1103.825
530.352050781,1112.75
530.637390137,1109.4
530.922607422,1102.925
531.207824707,1112.15
531.493041992,1085.875
531.778198242,1151.25
532.063354492,1127.425
532.348571777,1083.0
532.633666992,1092.175
532.918762207,1158.675
533.203857422,1234.55
533.488891602,1250.425
533.773925781,1215.65
534.059020996,1179.7
534.343933105,1218.1
534.628967285,1198.625
534.91394043,1205.95
535.198852539,1219.55
535.483703613,1199.4
535.768676758,1142.6
536.053527832,1143.85
536.338317871,1116.4
536.62322998,1062.925
536.90802002,1046.25
537.192810059,1059.15
537.477539062,1125.95
537.762329102,1160.125
538.047058105,1186.175
538.331726074,1219.575
538.616455078,1200.425
538.901123047,1191.625
539.18572998,1222.1
539.470397949,1229.3
539.755004883,1223.55
540.039550781,1189.825
540.32409668,1149.35
540.608703613,1190.925
540.893188477,1274.775
541.17767334,1283.1
541.462158203,1287.5
541.746643066,1229.625
542.031066895,1275.65
542.315429688,1299.65
542.59979248,1305.35
542.884216309,1284.525
543.168579102,1283.65
543.452941895,1283.15
543.737243652,1329.925
544.021484375,1369.225
544.305725098,1359.275
544.590026855,1334.025
544.874267578,1347.2
545.158447266,1415.1
545.442626953,1339.575
545.726806641,1254.775
546.010925293,1277.275
546.29510498,1304.725
546.579162598,1307.9
546.863220215,1335.575
547.147277832,1391.1
547.431335449,1455.85
547.715332031,1507.975
547.999328613,1589.3
548.283325195,1594.2
548.567260742,1478.0
548.851135254,1452.875
549.135070801,1434.275
549.419006348,1353.1
549.702819824,1443.4
549.986755371,1497.65
550.270507812,1460.725
550.554321289,1494.925
550.83807373,1504.85
551.121826172,1468.525
551.405517578,1488.175
551.689331055,1589.6
551.973022461,1763.425
552.256652832,1812.375
552.540344238,1734.1
552.823974609,1716.325
553.107543945,1703.75
553.391174316,1758.975
553.674743652,1808.0
553.958251953,1822.75
554.241821289,1812.3
554.525268555,1762.95
554.808776855,1753.375
555.092285156,1912.375
555.375671387,1983.725
555.659057617,1968.2
555.942504883,2007.325
556.225891113,2021.875
556.509216309,1999.775
556.792541504,1923.975
557.075866699,1981.7
557.359130859,2022.15
557.64239502,2001.75
557.92565918,2074.6
558.208862305,2053.6
558.49206543,1993.45
558.77532959,2027.3
559.058410645,2056.05
559.341552734,2048.925
559.624694824,2091.725
559.907775879,2147.675
560.190856934,2259.6
560.473937988,2252.125
560.756896973,2270.5
561.039978027,2302.725
561.322937012,2255.975
561.605895996,2263.525
561.88885498,2234.025
562.171813965,2232.2
562.454650879,2226.85
562.737548828,2248.025
563.020446777,2310.7
563.303283691,2334.075
563.58605957,2350.325
563.868896484,2379.825
564.151672363,2408.55
564.434387207,2444.8
564.717163086,2405.4
564.99987793,2447.6
565.282531738,2497.6
565.565185547,2440.375
565.847839355,2456.575
566.130432129,2552.375
566.413085938,2529.025
566.695678711,2545.2
566.978149414,2636.325
567.260681152,2764.475
567.543273926,2819.85
567.825744629,2732.825
568.108154297,2774.9
568.390686035,2881.175
568.673095703,2979.325
568.955505371,3011.1
569.237854004,3047.1
569.520202637,3255.675
569.802490234,3422.8
570.084838867,3425.175
570.367126465,3293.575
570.649414062,3303.025
570.93170166,3585.475
571.213928223,3644.0
571.496154785,3453.9
571.778381348,3631.675
572.06048584,3854.125
572.342590332,3468.425
572.624755859,3195.65
572.906860352,3258.125
573.188903809,3809.25
573.470947266,4019.65
573.752990723,3823.15
574.03503418,3903.15
574.317016602,4219.375
574.598937988,4049.875
574.88092041,3964.3
575.162841797,4112.65
575.444763184,3800.325
575.726623535,3603.65
576.008483887,3633.5
576.290344238,3965.075
576.572143555,4152.6
576.853881836,4180.525
577.135681152,4118.85
577.417419434,4158.475
577.699157715,4900.425
577.980895996,5055.2
578.262573242,4501.125
578.544128418,4105.325
578.825866699,4050.825
579.107421875,3793.6
579.388977051,3938.475
579.670593262,4278.2
579.952148438,4146.925
580.233642578,4238.5
580.515197754,4339.575
580.796691895,4070.725
581.078125,4248.15
581.359619141,5525.325
581.640991211,5617.25
581.922363281,4825.15
582.203796387,4886.8
582.485107422,4583.0
582.766418457,4251.6
583.047790527,4123.225
583.329040527,4025.775
583.610290527,3934.575
583.891540527,4030.3
584.172790527,4296.5
584.453918457,4309.8
584.735107422,4379.55
585.016235352,4761.575
585.297363281,4736.375
585.578552246,4570.25
585.859619141,4518.025
586.140625,4329.375
586.421630859,4219.775
586.702697754,4251.825
586.983642578,4455.3
587.264648438,4605.15
587.545654297,4559.25
587.826477051,4514.075
588.107421875,4352.65
588.388305664,4404.175
588.669189453,4493.9
588.950012207,4361.15
589.230834961,4251.125
589.511657715,4345.275
589.792358398,4422.925
590.073120117,4474.125
590.353881836,4432.275
590.63458252,4440.825
590.915283203,4421.8
591.195922852,4409.575
591.4765625,4449.575
591.757202148,4503.8
592.037780762,4505.55
592.31829834,4504.6
592.598937988,4713.425
592.879394531,4849.7
593.159912109,4785.925
593.440429688,4721.075
593.720825195,4725.375
594.001281738,4702.075
594.281677246,4649.05
594.562072754,4648.825
594.842407227,4727.625
595.122802734,4773.05
595.403137207,4761.6
595.683410645,4756.425
595.963623047,4737.225
596.243896484,4728.95
596.524169922,4727.8
596.804382324,4722.25
597.084533691,4775.825
597.364746094,4809.55
597.644836426,4812.15
597.924987793,4803.7
598.205078125,4808.325
598.485107422,4814.125
598.765197754,4943.375
599.045227051,4985.5
599.325195312,4915.775
599.605224609,4879.0
599.885192871,4930.725
600.165100098,4967.4
600.445007324,4918.675
600.724914551,4928.3
601.004760742,4945.85
601.284667969,4951.9
601.56451416,4938.525
601.844238281,4980.05
602.124084473,4995.175
602.403808594,4979.65
602.683532715,5015.125
602.963256836,5026.875
603.242919922,5023.075
603.522583008,5077.2
603.802246094,5061.45
604.081848145,5046.025
604.36138916,5032.975
604.641052246,5044.825
604.920532227,5042.375
605.200073242,5090.775
605.479614258,5101.1
605.759094238,5142.525
606.038574219,5143.675
606.317932129,5088.675
606.597412109,5093.075
606.87677002,5104.075
607.15612793,5158.45
607.435546875,5134.025
607.714782715,5170.775
607.99407959,5141.4
608.273376465,5137.575
608.552612305,5153.325
608.831848145,5174.325
609.111083984,5165.45
609.390258789,5135.775
609.669433594,5159.975
609.948608398,5216.125
610.227722168,5200.35
610.506713867,5167.375
610.785888672,5184.675
611.064880371,5173.3
611.34387207,5166.7
611.622924805,5180.675
611.901916504,5199.2
612.180847168,5142.5
612.459777832,5163.025
612.738647461,5154.9
613.01751709,5151.3
613.296447754,5094.775
613.575317383,5075.05
613.854064941,5023.75
614.132873535,4935.55
614.411621094,4891.5
614.690368652,4866.15
614.969177246,4820.175
615.247802734,4754.975
615.526489258,4744.25
615.805175781,4639.2
616.08380127,4524.175
616.362365723,4453.325
616.640991211,4411.8
616.919555664,4351.6
617.198059082,4484.65
617.4765625,4740.825
617.755126953,4882.0
618.033569336,4907.25
618.311950684,4900.95
618.590454102,4901.15
618.868774414,4881.45
619.147155762,4893.3
619.425598145,4891.75
619.703857422,4886.3
619.982177734,4909.2
620.260498047,4883.775
620.538757324,4889.8
620.816955566,4855.0
621.095214844,4811.425
621.373413086,4839.475
621.651550293,4914.05
621.929748535,4932.525
622.207824707,4909.95
622.485900879,4920.725
622.764038086,4935.2
623.042053223,4978.425
623.320007324,4999.275
623.598083496,4999.375
623.876037598,4969.95
624.153991699,4973.85
624.432006836,5013.575
624.709838867,5015.4
624.987731934,5021.9
625.265563965,5008.75
625.543395996,5037.45
625.821228027,5097.75
626.098999023,5085.85
626.376831055,5120.925
626.654541016,5140.75
626.932250977,5167.05
627.209960938,5226.95
627.487670898,5252.975
627.765319824,5269.95
628.04296875,5285.9
628.320495605,5291.325
628.598083496,5284.925
628.875671387,5323.675
629.153259277,5329.175
629.430725098,5391.9
629.708251953,5386.325
629.985656738,5430.325
630.263122559,5461.325
630.540588379,5463.05
630.817932129,5515.15
631.095275879,5541.2
631.372680664,5558.125
631.649963379,5611.35
631.927246094,5643.0
632.204589844,5699.15
632.481811523,5745.125
632.759033203,5844.2
633.036254883,5856.7
633.313415527,5940.825
633.590576172,5986.475
633.867736816,6079.6
634.144836426,6138.85
634.421875,6175.6
634.698913574,6255.175
634.976013184,6282.975
635.252990723,6373.8
635.529968262,6387.725
635.807006836,6478.55
636.08392334,6442.6
636.360839844,6344.425
636.637756348,6271.075
636.914611816,6241.425
637.191467285,6236.575
637.468261719,6308.825
637.745056152,6255.75
638.021789551,6293.5
638.298583984,6322.625
638.575317383,6351.425
638.851989746,6355.8
639.12878418,6344.7
639.405395508,6338.0
639.682006836,6396.375
639.958618164,6384.45
640.235229492,6346.775
640.511779785,6394.475
640.788330078,6386.725
641.064880371,6381.825
641.341308594,6379.7
641.617797852,6368.0
641.894226074,6404.125
642.170654297,6387.65
642.44708252,6403.0
642.723388672,6383.475
642.999755859,6397.775
643.276123047,6409.55
643.552429199,6375.8
643.828674316,6385.675
644.104919434,6368.625
644.381164551,6349.3
644.657348633,6352.825
644.933532715,6339.9
645.209716797,6347.675
645.485839844,6346.925
645.761901855,6359.175
646.038024902,6344.1
646.314086914,6364.675
646.590087891,6357.25
646.866149902,6372.175
647.142150879,6308.15
647.41809082,6306.425
647.694030762,6304.175
647.969970703,6264.0
648.245788574,6334.6
648.521728516,6306.05
648.797546387,6289.55
649.073303223,6321.725
649.349182129,6277.55
649.624938965,6296.175
649.900634766,6316.3
650.176391602,6282.525
650.452087402,6279.0
650.727783203,6281.85
651.003479004,6273.925
651.279052734,6277.725
651.554626465,6260.75
651.83026123,6250.125
652.105773926,6281.825
652.381286621,6218.5
652.656860352,6224.025
652.932312012,6245.275
653.207763672,6251.725
653.483215332,6285.775
653.758605957,6264.7
654.033935547,6269.25
654.309326172,6260.075
654.584716797,6305.625
654.859985352,6254.05
655.135253906,6297.725
655.410583496,6303.15
655.685791016,7253.075
655.9609375,11303.775
656.236206055,11088.825
656.511291504,7321.375
656.786437988,6448.05
657.061645508,6355.35
657.336669922,6284.225
657.611694336,6335.95
657.886779785,6370.05
658.161804199,6377.7
658.436828613,6334.85
658.711791992,6355.0
658.986755371,6371.55
659.261657715,6379.425
659.536621094,6387.8
659.811401367,6403.875
660.086303711,6379.625
660.36114502,6403.95
660.635864258,6379.875
660.910644531,6417.2
661.185424805,6397.25
661.460205078,6426.125
661.734863281,6445.675
662.009521484,6416.5
662.284179688,6420.925
662.558776855,6468.8
662.833435059,6485.375
663.108032227,6478.725
663.382568359,6439.15
663.657043457,6525.7
663.93157959,6531.65
664.206054688,6511.275
664.48046875,6552.25
664.755004883,6555.75
665.02935791,6571.95
665.303710938,6600.325
665.578125,6610.05
665.852416992,6605.675
666.126708984,6613.3
666.401062012,6602.2
666.675292969,6633.2
666.949462891,6654.825
667.223754883,6622.7
667.497924805,6666.7
667.772094727,6694.275
668.046264648,6640.05
668.3203125,6697.4
668.594421387,6713.575
668.868469238,6723.775
669.14251709,6733.6
669.416503906,6745.55
669.690551758,6741.325
669.964477539,6743.975
670.23840332,6749.375
670.512329102,6754.05
670.786254883,6718.35
671.060058594,6774.925
671.333984375,6790.225
671.607788086,6785.55
671.881530762,6793.575
672.155334473,6828.475
672.429077148,6839.45
672.702758789,6842.375
672.97644043,6839.375
673.25012207,6829.5
673.523742676,6813.6
673.797302246,6825.4
674.070922852,6864.0
674.344482422,6865.3
674.618041992,6862.7
674.891601562,6828.875
675.165100098,6857.55
675.438476562,6863.375
675.711975098,6873.65
675.985412598,6844.725
676.258789062,6851.925
676.532165527,6885.625
676.805480957,6861.975
677.078796387,6878.25
677.352111816,6890.325
677.625366211,6874.95
677.898620605,6843.6
678.171875,6912.65
678.445007324,6884.8
678.718200684,6908.05
678.991394043,6901.3
679.264404297,6881.3
679.537536621,6911.775
679.81060791,6913.475
680.083679199,6915.7
680.356689453,6921.6
680.629699707,6930.65
680.902648926,6915.175
681.175598145,6933.75
681.448547363,6953.525
681.721435547,6911.175
681.99420166,6907.125
682.267150879,6889.45
682.539916992,6944.675
682.812744141,6909.5
683.085510254,6883.475
683.358215332,6913.05
683.63092041,6877.375
683.903625488,6909.05
684.176330566,6870.325
684.448913574,6865.05
684.721557617,6840.4
684.99420166,6893.7
685.266662598,6871.95
685.539245605,6869.225
685.811767578,6891.775
686.084289551,6922.85
686.356689453,6930.275
686.629150391,6936.225
686.901550293,6972.175
687.17401123,6947.25
687.446350098,6989.575
687.718688965,6971.55
687.990966797,7019.175
688.263305664,6977.725
688.535522461,6974.1
688.807739258,6950.375
689.079956055,7013.175
689.352172852,7015.225
689.624328613,6994.225
689.896484375,7009.975
690.168518066,7017.875
690.440612793,7014.225
690.71270752,7005.8
690.984741211,6980.375
691.256713867,7026.85
691.528747559,7015.975
691.800720215,7016.375
692.072631836,7020.45
692.344543457,7051.95
692.616394043,7038.1
692.888244629,7052.325
693.160095215,7060.525
693.431945801,7091.35
693.703674316,7023.025
693.975463867,7028.125
694.247131348,7054.85
694.518859863,7027.15
694.790588379,7042.0
695.062255859,7066.0
695.33380127,7028.025
695.60546875,7021.55
695.87701416,7031.45
696.148498535,7023.8
696.42010498,7048.85
696.691589355,7066.675
696.96307373,7074.4
697.234558105,7116.675
697.50592041,7066.125
697.777282715,7078.9
698.048706055,7081.9
698.320068359,7103.875
698.591308594,7068.075
698.862670898,7049.275
699.133972168,7097.825
699.405151367,7059.75
699.676391602,7109.7
699.947570801,7070.05
700.21875,7068.05
700.489868164,7075.725
700.761047363,7072.375
701.032104492,7103.0
701.303100586,7034.075
701.57421875,7078.4
701.845214844,7070.6
702.116149902,7078.425
702.387207031,7049.95
702.65814209,7059.425
702.928955078,7066.35
703.199951172,7031.725
703.47076416,7007.05
703.741577148,6993.95
704.012451172,7044.975
704.28314209,7023.6
704.553955078,6995.425
704.824707031,7020.175
705.095397949,7048.15
705.366027832,7043.575
705.63671875,7042.975
705.907348633,7002.925
706.17791748,6999.6
706.448486328,7016.825
706.719055176,7005.475
706.989562988,7018.85
707.260131836,7008.8
707.530517578,7014.075
707.800964355,7010.85
708.071411133,6962.65
708.341796875,6949.4
708.612182617,6944.575
708.882446289,6914.675
709.152893066,6931.225
709.423156738,6939.825
709.693359375,6903.45
709.963623047,6916.45
710.233825684,6930.3
710.503967285,6887.875
710.774169922,6886.35
711.044311523,6875.1
711.31439209,6874.7
711.584533691,6882.3
711.854553223,6856.875
712.124572754,6858.525
712.39465332,6829.85
712.664611816,6851.4
712.934509277,6887.45
713.204467773,6848.575
713.474365234,6853.4
713.74420166,6803.85
714.014099121,6830.25
714.283874512,6802.625
714.553710938,6824.775
714.823486328,6830.675
715.093200684,6791.775
715.362915039,6793.25
715.632629395,6726.525
715.902282715,6740.125
716.171875,6728.325
716.441589355,6717.425
716.711181641,6692.5
716.980712891,6711.8
717.250244141,6679.175
717.519775391,6687.5
717.78918457,6672.625
718.058654785,6720.175
718.328125,6713.15
718.597473145,6683.325
718.866882324,6653.375
719.136230469,6652.875
719.405578613,6678.85
719.674865723,6672.1
719.944152832,6667.825
720.213439941,6616.675
720.48260498,6638.775
720.75177002,6634.525
721.020996094,6607.9
721.290100098,6616.325
721.559204102,6577.2
721.828308105,6579.3
722.097351074,6570.425
722.366455078,6550.35
722.635437012,6543.125
722.904418945,6508.475
723.173400879,6546.0
723.442321777,6535.85
723.711181641,6515.075
723.980102539,6537.25
724.248962402,6515.25
724.51776123,6481.9
724.786560059,6478.8
725.055358887,6472.025
725.324035645,6444.025
725.592834473,6469.275
725.86151123,6432.4
726.130187988,6414.825
726.398803711,6388.775
726.667419434,6421.35
726.935974121,6379.175
727.204528809,6332.1
727.473083496,6353.675
727.741638184,6312.8
728.010070801,6302.7
728.278564453,6276.35
728.546936035,6264.925
728.815368652,6254.3
729.08380127,6158.0
729.352111816,6122.875
729.620361328,6078.9
729.88873291,6107.7
730.156982422,6099.6
730.425231934,6114.775
730.693481445,6107.65
730.961669922,6138.925
731.229797363,6161.675
731.49798584,6174.525
731.766113281,6200.975
732.034118652,6230.4
732.302246094,6237.05
732.570251465,6269.1
732.838256836,6276.65
733.106262207,6325.925
733.374145508,6349.925
733.642089844,6354.525
733.909973145,6410.25
734.177856445,6450.475
734.445678711,6494.475
734.713562012,6568.5
734.981323242,6540.1
735.249084473,6582.45
735.516845703,6702.65
735.784545898,6717.85
736.052185059,6752.025
736.319885254,6806.175
736.587524414,6836.55
736.855102539,6848.725
737.122619629,6924.55
737.390197754,6954.425
737.657714844,7026.5
737.925170898,7045.925
738.192749023,7098.875
738.460144043,7164.525
738.727539062,7186.3
738.994995117,7244.675
739.262329102,7289.375
739.529663086,7371.825
739.79699707,7369.825
740.06427002,7410.1
740.331481934,7440.75
740.598754883,7473.2
740.865905762,7496.625
741.133056641,7589.025
741.40032959,7579.25
741.667358398,7648.55
741.934448242,7642.575
742.201599121,7658.825
742.468566895,7745.3
742.735534668,7779.95
743.002563477,7794.725
743.26953125,7763.475
743.536437988,7822.725
743.803405762,7876.575
744.0703125,7830.7
744.337097168,7895.675
744.604003906,7854.925
744.870727539,7897.25
745.137512207,7939.95
745.40423584,7926.075
745.670959473,7901.15
745.93762207,7927.625
746.204284668,7931.075
746.470947266,7946.975
746.737548828,7915.075
747.004089355,7959.075
747.270751953,7941.15
747.53717041,7953.725
747.803710938,7906.3
748.070251465,7913.225
748.336608887,7899.85
748.603027344,7863.775
748.869445801,7890.0
749.135803223,7844.175
749.402099609,7859.425
749.668457031,7882.9
749.934753418,7843.825
750.20098877,7784.1
750.467224121,7834.3
750.733459473,7814.65
750.999572754,7770.125
751.26574707,7736.4
751.531860352,7735.6
751.797912598,7724.125
752.064025879,7663.95
752.330078125,7685.675
752.596069336,7658.6
752.862060547,7626.7
753.127990723,7643.475
753.393920898,7615.3
753.659912109,7589.075
753.925720215,7610.575
754.19152832,7587.125
754.457397461,7552.225
754.723144531,7505.725
754.988952637,7489.525
755.254699707,7478.6
755.520385742,7498.85
755.786071777,7463.4
756.051696777,7439.725
756.317382812,7438.7
756.582946777,7414.575
756.848510742,7406.575
757.114074707,7359.25
757.379577637,7364.25
757.645080566,7395.75
757.910583496,7374.1
758.175964355,7312.425
758.441345215,7305.375
758.706848145,7197.75
758.972106934,7218.1
759.237426758,7236.0
759.502807617,7244.375
759.768005371,7226.35
760.03326416,7194.475
760.298522949,7161.45
760.563659668,7174.9
760.828857422,7130.05
761.093994141,7146.675
761.359130859,7138.875
761.624206543,7102.475
761.889282227,7075.475
762.15423584,7075.6
762.419250488,7060.575
762.684265137,7037.45
762.949157715,7023.45
763.214050293,7016.375
763.479003906,7008.475
763.743835449,6988.5
764.008666992,6948.475
764.2734375,6938.475
764.538208008,6960.35
764.802978516,6995.725
765.067687988,6970.175
765.332397461,6950.425
765.597045898,6935.8
765.861694336,6919.775
766.126342773,6893.225
766.390930176,6881.75
766.655395508,6862.375
766.920043945,6840.675
767.184509277,6825.625
767.448974609,6855.575
767.713439941,6827.5
767.977783203,6797.575
768.2421875,6825.05
768.506591797,6793.475
768.770874023,6847.35
769.03515625,6784.9
769.299499512,6806.075
769.563720703,6811.7
769.827941895,6756.95
770.092163086,6765.85
770.356323242,6747.55
770.620483398,6784.85
770.88458252,6789.7
771.148681641,6778.125
771.412719727,6767.075
771.676757812,6756.6
771.940734863,6730.35
772.204711914,6730.65
772.468688965,6688.35
772.73260498,6688.65
772.996459961,6702.675
773.260314941,5962.5
773.524169922,798.525
773.787963867,140.5
774.051696777,122.725
774.315551758,120.325
774.579223633,120.325
774.842895508,121.75
775.106567383,120.25
775.370239258,118.2
775.633789062,123.35
775.897399902,126.475
776.160949707,117.05
776.424499512,121.7
776.687988281,124.25
776.951477051,125.025
777.214904785,119.675
777.47833252,120.85
