191.299911499,102.325
191.603515625,104.2
191.907119751,96.95
192.210693359,104.775
192.514251709,97.5
192.817810059,104.425
193.121368408,103.725
193.42489624,106.825
193.728408813,97.2
194.031936646,98.525
194.33543396,94.975
194.638916016,112.7
194.94241333,96.175
195.245880127,99.825
195.549331665,98.325
195.852767944,101.525
196.156204224,207.55
196.459625244,201.65
196.763015747,205.35
197.066436768,210.775
197.369812012,206.5
197.673187256,206.4
197.9765625,204.225
198.279922485,204.7
198.583251953,197.875
198.886581421,205.25
199.18989563,211.35
199.493209839,204.925
199.79649353,198.1
200.09979248,213.825
200.403076172,202.075
200.706314087,211.15
201.009567261,204.85
201.312820435,210.95
201.616027832,198.65
201.919235229,193.35
202.222457886,199.375
202.525634766,201.95
202.828826904,192.575
203.132003784,191.975
203.435150146,196.775
203.738296509,193.375
204.041412354,195.55
204.344558716,198.05
204.647659302,202.15
204.950759888,202.85
205.253845215,199.225
205.556930542,197.575
205.859985352,201.1
206.163024902,199.0
206.466079712,199.35
206.769104004,209.625
207.072113037,200.95
207.375137329,195.0
207.678131104,202.775
207.981109619,201.975
208.284088135,200.05
208.587036133,203.45
208.889984131,205.325
209.19291687,202.05
209.495849609,203.125
209.798751831,206.6
210.101654053,207.225
210.404556274,209.55
210.707427979,201.375
211.010269165,212.575
211.31312561,212.125
211.615982056,209.9
211.918807983,212.375
212.221618652,210.075
212.524429321,208.1
212.827224731,218.125
213.130004883,211.475
213.432769775,216.525
213.735534668,216.5
214.038269043,220.9
214.341003418,215.7
214.643737793,226.425
214.946456909,226.55
215.249145508,227.825
215.551834106,230.6
215.854507446,227.8
216.157165527,227.475
216.45980835,230.875
216.762451172,237.325
217.065078735,237.025
217.36769104,239.925
217.670303345,244.15
217.972885132,241.325
218.275466919,249.475
218.578048706,238.75
218.880599976,253.4
219.183120728,260.5
219.485656738,262.9
219.788192749,283.3
220.090682983,301.725
220.393188477,330.325
220.695663452,375.725
220.998138428,403.075
221.300582886,461.075
221.603042603,513.1
221.905487061,572.775
222.207901001,652.675
222.510299683,722.85
222.812728882,828.5
223.115097046,920.875
223.41746521,1003.875
223.719848633,1123.7
224.022171021,1221.45
224.324508667,1333.225
224.626846313,1462.2
224.929168701,1563.15
225.231460571,1696.45
225.533737183,1809.525
225.836013794,1945.325
226.138290405,2046.95
226.440536499,2166.65
226.742767334,2266.175
227.044998169,2366.425
227.347213745,2502.975
227.649429321,2575.4
227.951629639,2653.1
228.253799438,2710.975
228.555953979,2807.7
228.858123779,2886.55
229.160263062,2951.7
229.462371826,2991.025
229.764511108,3030.9
230.066619873,3110.425
230.36869812,3157.4
230.670776367,3200.625
230.972854614,3265.0
231.274902344,3330.5
231.576950073,3409.9
231.878967285,3425.525
232.180999756,3513.725
232.48298645,3595.825
232.784988403,3645.8
233.086975098,3707.075
233.388946533,3754.15
233.69090271,3825.825
233.992858887,3918.425
234.294769287,3935.375
234.596694946,4000.775
234.898605347,4060.95
235.200500488,4099.75
235.502380371,4138.15
235.804244995,4171.375
236.106109619,4198.075
236.407958984,4223.9
236.709777832,4302.675
237.011581421,4322.775
237.313400269,4339.625
237.615203857,4359.025
237.916976929,4415.35
238.21875,4411.425
238.520507812,4454.575
238.822250366,4457.025
239.12399292,4507.025
239.425704956,4545.775
239.727401733,4531.4
240.02911377,4563.625
240.330780029,4556.675
240.632446289,4614.2
240.93409729,4625.875
241.23576355,4651.25
241.537384033,4705.875
241.839004517,4725.975
242.140594482,4779.875
242.442199707,4816.825
242.743774414,4869.775
243.045333862,4903.85
243.346923828,4955.05
243.648452759,4963.4
243.949966431,5001.925
244.251495361,5072.8
244.552993774,5106.725
244.854492188,5134.9
245.155975342,5171.6
245.457443237,5222.375
245.758880615,5238.25
246.060333252,5287.4
246.36177063,5291.175
246.66317749,5307.1
246.964569092,5353.5
247.265945435,5381.25
247.567337036,5424.05
247.86869812,5480.725
248.170059204,5531.675
248.471389771,5582.2
248.772705078,5640.075
249.074035645,5729.2
249.375335693,5776.75
249.676620483,5851.875
249.977890015,5937.425
250.279159546,6054.225
250.58039856,6138.525
250.881637573,6211.0
251.182876587,6322.025
251.484069824,6429.725
251.785263062,6537.75
252.086456299,6682.8
252.387619019,6736.6
252.688781738,6853.35
252.989929199,6935.3
253.291061401,7105.1
253.592178345,7206.25
253.893280029,7292.275
254.194366455,7357.15
254.49546814,7463.325
254.796524048,7507.625
255.097579956,7591.6
255.398620605,7640.65
255.699645996,7715.625
256.000640869,7727.6
256.30166626,7797.4
256.602661133,7850.025
256.903656006,7837.375
257.204589844,7879.3
257.505523682,7861.025
257.80645752,7919.6
258.107391357,7879.55
258.408294678,7880.9
258.709228516,7843.525
259.010070801,7803.575
259.310943604,7772.0
259.611846924,7722.2
259.912658691,7690.25
260.213500977,7621.4
260.514343262,7575.425
260.815124512,7477.0
261.115936279,7447.325
261.416717529,7419.6
261.717468262,7393.15
262.018218994,7332.675
262.318969727,7291.15
262.619689941,7337.65
262.920410156,7395.8
263.221130371,7419.15
263.521789551,7458.675
263.822479248,7476.95
264.123138428,7543.6
264.42376709,7563.525
264.72442627,7557.8
265.025054932,7563.975
265.325622559,7553.025
265.626251221,7550.025
265.926818848,7476.65
266.227386475,7434.675
266.527954102,7399.625
266.828460693,7360.6
267.12902832,7275.725
267.429534912,7231.95
267.730010986,7141.125
268.030517578,7079.325
268.330993652,7023.5
268.631439209,6980.45
268.931915283,6931.15
269.232299805,6902.9
269.532745361,6871.275
269.8331604,6771.7
270.133544922,6765.475
270.433929443,6723.1
270.734313965,6703.3
271.034637451,6710.45
271.334991455,6679.95
271.635314941,6682.425
271.935638428,6675.75
272.235931396,6760.075
272.536254883,6803.775
272.836486816,6846.55
273.136749268,6911.6
273.437011719,7008.85
273.737213135,7132.05
274.037445068,7201.925
274.337677002,7281.525
274.6378479,7380.35
274.938049316,7524.05
275.238220215,7622.975
275.538360596,7777.625
275.838500977,7824.1
276.138641357,7989.875
276.438751221,8021.45
276.738830566,8139.125
277.03894043,8208.025
277.338989258,8343.8
277.639038086,8424.675
277.939056396,8461.15
278.239105225,8535.025
278.539093018,8635.0
278.839141846,8674.975
279.139129639,8748.1
279.439086914,8808.55
279.739044189,8870.025
280.039001465,8959.175
280.338928223,8954.7
280.63885498,9004.875
280.938781738,9090.275
281.238647461,9112.8
281.538513184,9099.175
281.838409424,9152.5
282.138244629,9203.525
282.438079834,9207.4
282.737945557,9217.5
283.037719727,9203.675
283.337524414,9255.175
283.637298584,9241.05
283.937072754,9274.9
284.236816406,9246.25
284.536560059,9223.075
284.836303711,9244.375
285.136016846,9273.225
285.43572998,9295.075
285.735412598,9252.725
286.035064697,9261.7
286.334747314,9315.35
286.634368896,9294.175
286.933990479,9210.6
287.233642578,9124.3
287.533203125,9138.55
287.832824707,9028.15
288.132385254,8945.0
288.431945801,8781.425
288.731506348,8613.675
289.031036377,8417.025
289.330566406,8276.2
289.630065918,8274.9
289.92956543,8200.675
290.229034424,8335.45
290.528503418,8462.025
290.827941895,8670.275
291.127380371,8838.925
291.42678833,8988.125
291.726226807,9120.825
292.025604248,9111.55
292.324981689,9141.0
292.624359131,9179.175
292.923736572,9162.425
293.223052979,9205.75
293.522369385,9155.55
293.821685791,9124.95
294.12097168,9082.075
294.420257568,9035.9
294.719543457,9013.0
295.018768311,9005.625
295.318023682,8924.225
295.617248535,8829.175
295.916442871,8787.575
296.215667725,8689.225
296.514862061,8530.2
296.813995361,8283.55
297.11315918,8100.675
297.412322998,7898.65
297.711425781,7895.825
298.010559082,8056.8
298.309631348,8281.55
298.608734131,8498.875
298.907806396,8692.175
299.206848145,8858.75
299.505889893,8953.975
299.804901123,9067.85
300.103912354,9143.925
300.402954102,9221.325
300.701904297,9264.725
301.00088501,9313.55
301.299835205,9425.2
301.5987854,9437.25
301.897735596,9533.725
302.196624756,9599.075
302.495513916,9664.9
302.794403076,9694.45
303.093292236,9757.975
303.392120361,9813.775
303.690979004,9909.5
303.989837646,9949.4
304.288604736,9977.675
304.587402344,9992.875
304.886199951,10049.85
305.184967041,10078.7
305.483734131,10147.975
305.782501221,10149.7
306.081176758,10157.1
306.37991333,10184.525
306.678619385,10197.925
306.977294922,10210.6
307.275970459,10231.175
307.574645996,10260.975
307.873260498,10209.575
308.171875,10240.975
308.470489502,10200.175
308.769104004,10150.275
309.067687988,10152.75
309.366241455,10156.475
309.664794922,10086.65
309.963348389,10105.925
310.261871338,10067.35
310.560394287,10070.625
310.858856201,10116.7
311.157348633,10152.825
311.455810547,10157.8
311.754272461,10153.475
312.052703857,10258.45
312.351135254,10248.45
312.649536133,10254.05
312.947937012,10232.25
313.246307373,10281.375
313.544647217,10264.15
313.843017578,10189.6
314.141387939,10163.15
314.439697266,10229.525
314.738006592,10108.9
315.036315918,10061.25
315.334564209,9940.95
315.6328125,9862.225
315.931091309,9812.1
316.229309082,9661.625
316.527526855,9499.425
316.825744629,9482.725
317.123901367,9378.275
317.422088623,9323.925
317.720245361,9305.575
318.0184021,9317.525
318.316497803,9362.925
318.614654541,9403.825
318.912750244,9509.75
319.21081543,9477.875
319.50894165,9540.8
319.806945801,9493.875
320.104980469,9508.55
320.403045654,9500.55
320.701049805,9456.725
320.999023438,9460.175
321.297027588,9346.05
321.595001221,9342.65
321.892913818,9338.775
322.190887451,9246.575
322.488830566,9181.5
322.786712646,9133.125
323.084625244,9049.6
323.382507324,9003.275
323.680358887,8893.5
323.978210449,8817.8
324.276062012,8787.15
324.573852539,8689.2
324.871643066,8636.65
325.169464111,8562.95
325.467224121,8511.475
325.764984131,8404.85
326.062744141,8343.325
326.360473633,8253.075
326.658203125,8187.775
326.955871582,8110.9
327.253570557,8033.15
327.551239014,7959.225
327.848907471,7914.55
328.146514893,7824.575
328.444152832,7745.9
328.741790771,7693.675
329.039367676,7620.95
329.336914062,7563.1
329.634521484,7477.175
329.932067871,7437.475
330.229553223,7350.075
330.527160645,7265.7
330.824615479,7231.075
331.12210083,7145.5
331.419586182,7005.15
331.717041016,6958.65
332.014465332,6857.075
332.311920166,6814.8
332.609313965,6760.475
332.906707764,6744.4
333.204101562,6727.875
333.501495361,6733.725
333.798828125,6805.625
334.096160889,6821.1
334.39352417,6890.05
334.690795898,6951.375
334.988098145,7005.275
335.285400391,7053.675
335.582641602,7061.475
335.879882812,7095.75
336.177124023,7098.1
336.474334717,7186.925
336.77154541,7173.675
337.068725586,7175.175
337.365905762,7210.45
337.66305542,7214.725
337.960205078,7245.55
338.257324219,7259.025
338.554443359,7258.375
338.8515625,7282.85
339.148590088,7285.175
339.445648193,7299.325
339.742736816,7248.275
340.039764404,7251.7
340.336761475,7189.075
340.63381958,7126.025
340.930755615,7107.875
341.227722168,7029.45
341.524688721,6933.525
341.821624756,6882.625
342.118560791,6899.35
342.415496826,7006.675
342.712402344,7157.475
343.009246826,7321.35
343.306121826,7424.775
343.602966309,7484.075
343.899810791,7586.475
344.196624756,7686.85
344.493438721,7696.125
344.79019165,7736.325
345.086975098,7809.35
345.383758545,7861.6
345.680480957,7823.15
345.977203369,7855.9
346.273956299,7898.675
346.570617676,7857.075
346.86730957,7915.5
347.163970947,7879.15
347.460601807,7909.725
347.757232666,7958.375
348.053894043,7923.25
348.350463867,7827.5
348.647064209,7822.3
348.943634033,7803.5
349.24017334,7804.2
349.536712646,7755.8
349.833251953,7771.4
350.129760742,7737.7
350.426208496,7717.125
350.722747803,7693.725
351.019195557,7679.0
351.315612793,7621.3
351.612060547,7594.9
351.908508301,7536.225
352.204864502,7465.475
352.501281738,7415.95
352.797637939,7340.425
353.093963623,7252.775
353.390319824,7208.85
353.686645508,7110.775
353.982940674,6997.05
354.27923584,6966.775
354.575531006,6910.25
354.871765137,6909.775
355.167999268,6858.425
355.464233398,6868.9
355.760437012,6880.15
356.056640625,6877.4
356.352813721,6886.0
356.648956299,6880.95
356.945129395,6917.675
357.241271973,6896.075
357.537384033,6934.35
357.833496094,6856.775
358.129577637,6839.575
358.425628662,6820.425
358.721679688,6803.825
359.017730713,6760.05
359.313720703,6707.25
359.609710693,6699.15
359.905761719,6591.85
360.201721191,6584.75
360.497650146,6503.675
360.793609619,6487.775
361.089538574,6404.975
361.385437012,6320.475
361.681365967,6261.75
361.977233887,6205.45
362.273071289,6142.275
362.568908691,6002.925
362.864746094,5890.55
363.160552979,5750.45
363.456359863,5557.625
363.752166748,5404.675
364.047912598,5296.4
364.343658447,5253.45
364.639434814,5306.25
364.935119629,5347.975
365.230834961,5399.0
365.526550293,5461.875
365.822174072,5464.375
366.117858887,5497.625
366.413482666,5524.8
366.709075928,5557.65
367.004730225,5464.175
367.300292969,5430.375
367.595855713,5485.425
367.891448975,5375.75
368.186981201,5260.375
368.482513428,5202.575
368.778015137,5199.3
369.073547363,5137.325
369.36895752,5180.6
369.664428711,5057.825
369.95993042,4932.3
370.255310059,4891.475
370.550720215,4842.0
370.846160889,4798.425
371.14151001,4784.375
371.436859131,4730.275
371.73223877,4715.0
372.027557373,4672.225
372.322875977,4618.55
372.618164062,4593.625
372.913482666,4538.225
373.208709717,4506.025
373.503967285,4432.85
373.799194336,4413.325
374.094421387,4394.275
374.389648438,4380.675
374.684844971,4363.05
374.979980469,4403.7
375.275146484,4427.3
375.570281982,4451.25
375.865386963,4447.625
376.160522461,4390.825
376.455596924,4401.125
376.750640869,4508.775
377.045715332,4513.775
377.340759277,4539.875
377.635772705,4622.5
377.93081665,4640.175
378.225769043,4720.725
378.520751953,4795.05
378.815734863,4745.225
379.110656738,4931.725
379.405548096,5116.7
379.700500488,4956.025
379.995391846,4707.625
380.290252686,4746.65
380.585083008,4859.6
380.879974365,4941.025
381.17477417,4817.375
381.469543457,4754.525
381.764404297,4739.875
382.059143066,4762.9
382.353912354,4877.225
382.648651123,4978.525
382.943389893,4953.575
383.238067627,4767.8
383.532775879,4770.45
383.827484131,4689.45
384.12210083,4698.375
384.416778564,4637.75
384.711425781,4524.0
385.006011963,4563.6
385.300628662,4540.7
385.595184326,4627.45
385.88973999,4736.7
386.184295654,4834.15
386.478820801,4926.0
386.77331543,5030.0
387.067840576,5145.875
387.362335205,5261.25
387.656768799,5315.175
387.951202393,5370.375
388.245635986,5435.7
388.540039062,5532.925
388.834472656,5594.95
389.128875732,5480.8
389.423187256,5233.025
389.717559814,5168.275
390.011871338,5281.725
390.306182861,5325.325
390.600463867,5348.275
390.894775391,5410.65
391.189025879,5445.4
391.48324585,5440.625
391.777526855,5481.2
392.071685791,5720.3
392.365875244,5834.1
392.660064697,5903.25
392.95425415,6266.95
393.248382568,6253.55
393.542510986,5743.075
393.836608887,5549.8
394.130706787,5549.525
394.424804688,5484.25
394.71887207,5608.2
395.012878418,5598.55
395.306915283,5475.925
395.600921631,5392.85
395.894927979,5346.5
396.188903809,5422.875
396.482879639,5437.675
396.776794434,5648.35
397.070739746,5612.1
397.364654541,5632.675
397.658538818,6058.175
397.952423096,6083.75
398.246307373,6054.45
398.540100098,6616.4
398.833953857,6494.375
399.127746582,5953.2
399.421508789,5974.2
399.715301514,5883.05
400.009063721,5795.275
400.30279541,5617.65
400.596496582,5540.425
400.890258789,5731.275
401.183929443,5781.35
401.47756958,5680.875
401.771240234,5418.175
402.064880371,5429.5
402.35848999,5480.85
402.652130127,5376.2
402.945678711,5448.575
403.239257812,5407.4
403.532775879,5324.325
403.82635498,5387.5
404.119842529,5314.025
404.413360596,5275.7
404.706848145,5338.025
405.000274658,5254.525
405.293762207,5351.675
405.587188721,5423.45
405.880584717,5225.3
406.17401123,5025.975
406.467407227,4781.475
406.760742188,4821.8
407.054107666,4852.525
407.347442627,4759.9
407.640716553,4761.6
407.934051514,4824.1
408.227325439,4896.7
408.520568848,5122.7
408.813842773,5231.675
409.107086182,5000.925
409.400238037,4960.825
409.693450928,4875.8
409.986633301,5015.825
410.279754639,4911.075
410.572875977,4580.625
410.86605835,4518.025
411.159118652,4539.175
411.452209473,4548.45
411.745330811,4386.825
412.038360596,4292.425
412.331390381,4328.525
412.624420166,4383.85
412.917388916,4284.075
413.210388184,4079.7
413.503387451,4032.2
413.796295166,3935.225
414.089233398,3749.95
414.382141113,3647.975
414.675048828,3649.5
414.967926025,3655.95
415.260803223,3611.925
415.55368042,3642.975
415.846466064,3602.425
416.139282227,3673.175
416.432098389,3809.2
416.724853516,3816.1
417.017608643,3737.975
417.31036377,3757.0
417.603088379,3913.65
417.895782471,3868.125
418.188476562,3835.45
418.481140137,3911.9
418.773803711,3970.875
419.066436768,3936.375
419.359039307,4031.95
419.651641846,4020.025
419.944244385,4016.0
420.236816406,3970.85
420.529327393,4212.55
420.821899414,4289.175
421.114379883,4197.225
421.406860352,4520.4
421.699371338,4750.65
421.991821289,4693.375
422.284240723,4469.425
422.576721191,4304.8
422.869110107,4182.325
423.161468506,4129.025
423.453857422,4170.15
423.74621582,4042.85
424.038543701,3878.7
424.330871582,3842.3
424.623168945,3762.15
424.915435791,3919.7
425.207702637,3876.0
425.499969482,3813.775
425.792205811,3744.6
426.084411621,3487.6
426.376617432,3577.725
426.668762207,3653.15
426.9609375,3524.725
427.253082275,3641.925
427.545196533,4109.625
427.837310791,3768.5
428.129425049,3476.875
428.421447754,3714.9
428.713531494,3703.675
429.005554199,3690.2
429.297576904,3701.9
429.589599609,4177.45
429.881561279,4531.55
430.173522949,4286.125
430.465484619,4233.975
430.757415771,4314.65
431.049316406,4060.25
431.341186523,3813.1
431.633117676,3682.15
431.924957275,3359.175
432.21673584,3239.55
432.508636475,3383.7
432.800415039,3417.4
433.092163086,3305.65
433.383972168,3278.425
433.675689697,4054.4
433.967437744,4612.275
434.259155273,3539.725
434.550872803,3194.1
434.842498779,3266.675
435.134185791,3408.325
435.425842285,3438.125
435.717437744,3344.05
436.009063721,3127.625
436.30065918,3284.75
436.592224121,3657.575
436.883758545,3443.825
437.175323486,3144.55
437.466827393,3119.525
437.758331299,3135.525
438.049804688,3159.4
438.341247559,3237.825
438.63269043,3318.9
438.924163818,3298.45
439.215515137,3262.575
439.50692749,3134.0
439.798309326,3153.125
440.089660645,3183.2
440.380981445,3064.725
440.672332764,3066.9
440.963623047,3363.7
441.254882812,3842.9
441.546173096,4064.95
441.837402344,3812.425
442.128631592,3568.375
442.41986084,3559.15
442.711029053,3412.075
443.002197266,3493.225
443.293365479,3689.15
443.584503174,3834.05
443.875610352,3820.1
444.166717529,3513.8
444.457794189,3583.05
444.748840332,3562.25
445.039916992,3508.375
445.330932617,3604.55
445.621948242,3432.3
445.912963867,3216.75
446.203918457,3471.375
446.494812012,3741.775
446.785827637,3504.975
447.076721191,3316.575
447.367584229,3287.4
447.658447266,3247.625
447.949371338,3320.2
448.24017334,3187.125
448.530975342,3102.675
448.821838379,3279.9
449.112579346,3363.7
449.40335083,3292.3
449.694152832,3328.4
449.984863281,3347.425
450.27557373,3270.775
450.56628418,3321.95
450.856933594,3353.75
451.147583008,3176.05
451.438262939,3058.875
451.728881836,3266.05
452.019470215,3384.45
452.310089111,3156.775
452.600646973,3194.175
452.891174316,3252.975
453.181732178,3058.775
453.472229004,2913.15
453.762695312,3047.225
454.053222656,3073.45
454.343658447,2917.175
454.634063721,2840.675
454.924530029,3046.25
455.214935303,3193.5
455.505279541,3278.025
455.795715332,3122.025
456.086029053,2895.75
456.376312256,2890.525
456.666687012,2923.475
456.956939697,3041.5
457.247192383,3035.225
457.537445068,3119.825
457.827728271,3339.275
458.117919922,3235.55
458.408081055,3154.9
458.698303223,3341.8
458.988433838,3282.725
459.278564453,3074.175
459.568725586,3406.9
459.858825684,3526.425
460.148864746,3166.05
460.438995361,3133.125
460.729034424,3191.125
461.019042969,3198.75
461.309082031,3429.45
461.599060059,3292.225
461.889007568,2778.95
462.179016113,2587.725
462.468933105,2848.2
462.75881958,2977.65
463.048736572,2691.4
463.338592529,2980.2
463.628448486,3394.3
463.918365479,3043.9
464.2081604,3238.125
464.497924805,3207.325
464.787780762,3336.775
465.077514648,3663.425
465.367218018,3243.725
465.657012939,3477.525
465.946685791,3923.4
466.236358643,3471.85
466.526092529,2881.325
466.815734863,2891.675
467.105316162,2814.0
467.394927979,2847.75
467.684570312,2694.725
467.974121094,2788.55
468.263671875,2922.4
468.553222656,2666.975
468.842773438,2557.875
469.132232666,2439.75
469.42175293,2471.675
469.711212158,2441.25
470.000640869,2304.55
470.290100098,2364.05
470.579498291,2415.475
470.868835449,2421.575
471.158294678,2370.025
471.447601318,2353.15
471.736907959,2411.6
472.026275635,2479.65
472.315551758,2466.375
472.604797363,2451.125
472.894104004,2625.65
473.183319092,2739.075
473.47253418,2723.3
473.761779785,2714.575
474.05090332,2632.8
474.340087891,2574.25
474.629241943,2525.3
474.918365479,2691.45
475.207427979,2997.275
475.496551514,3020.85
475.785614014,2735.85
476.074645996,2506.525
476.363708496,2618.2
476.652679443,2759.375
476.941650391,2581.925
477.230682373,2403.725
477.519622803,2403.375
477.808502197,2565.625
478.097412109,2863.625
478.386352539,2805.225
478.675201416,2510.275
478.964050293,2408.975
479.25289917,2613.6
479.541717529,2679.45
479.830474854,2497.975
480.11932373,2886.925
480.408050537,3086.275
480.696777344,2666.0
480.985534668,2509.975
481.274200439,2610.35
481.562866211,2894.975
481.851593018,2907.15
482.140197754,2856.6
482.428833008,2660.8
482.717468262,2435.7
483.006011963,2486.275
483.294586182,2620.45
483.5831604,2652.175
483.871673584,2511.55
484.16015625,2674.15
484.448699951,2931.7
484.7371521,2980.45
485.02557373,2989.45
485.314025879,2687.4
485.602416992,4158.925
485.890777588,14677.225
486.179199219,13141.95
486.467559814,3554.925
486.755859375,2576.425
487.044219971,2998.875
487.332519531,3203.65
487.620758057,2750.725
487.908966064,2466.525
488.197265625,2244.125
488.485473633,2144.25
488.773651123,2258.275
489.061859131,2253.65
489.350006104,2197.875
489.638122559,2139.8
489.926300049,2165.225
490.214355469,2116.625
490.502441406,2042.95
490.790527344,1964.525
491.078552246,2185.6
491.366546631,2186.0
491.654602051,1919.35
491.942565918,2021.775
492.230499268,2064.375
492.518493652,2024.25
492.806396484,2074.2
493.094268799,1958.15
493.382202148,2014.125
493.670074463,2130.775
493.957885742,1966.75
494.245727539,1955.95
494.533508301,2160.875
494.821289062,2022.775
495.109100342,1852.95
495.396850586,1794.575
495.684539795,1744.525
495.972290039,1996.125
496.25994873,2365.425
496.547607422,2370.6
496.835296631,2176.3
497.122894287,1809.75
497.410522461,1733.025
497.6980896,1732.3
497.985687256,1696.225
498.273223877,1813.425
498.560760498,1883.475
498.848266602,1903.8
499.135772705,1889.575
499.423217773,1928.125
499.710693359,2067.625
499.998138428,1984.675
500.285522461,1786.0
500.572937012,1716.975
500.860290527,1768.1
501.147644043,1880.825
501.434997559,2140.35
501.722290039,1987.3
502.00958252,1724.2
502.296875,2031.225
502.584106445,2016.45
502.871337891,1816.075
503.158599854,1889.975
503.445770264,1977.075
503.732910156,1954.925
504.020141602,1743.95
504.307220459,1722.875
504.594329834,1764.6
504.881469727,1689.125
505.168518066,1763.175
505.455535889,1848.55
505.742614746,1712.5
506.029632568,1639.275
506.316589355,1858.8
506.603637695,1942.225
506.890563965,1724.4
507.177459717,1534.425
507.464385986,1443.425
507.751312256,1694.025
508.038146973,1804.05
508.325012207,1627.625
508.611877441,1701.525
508.898681641,1704.8
509.185424805,1527.725
509.472259521,1487.55
509.759002686,1578.525
510.045715332,1620.85
510.332458496,1551.225
510.619140625,1621.3
510.905761719,1533.125
511.192504883,1507.925
511.479095459,1562.0
511.765686035,1518.45
512.052307129,1420.375
512.338928223,1363.25
512.625427246,1410.55
512.91204834,1495.925
513.198486328,1462.925
513.484985352,1431.375
513.77142334,1343.25
514.057922363,1394.175
514.344299316,1390.775
514.63079834,1351.0
514.917175293,1327.8
515.203552246,1221.45
515.489868164,1203.7
515.776245117,1332.125
516.0625,1381.025
516.348815918,1276.375
516.635070801,1316.075
516.921325684,1382.925
517.207580566,1313.925
517.493774414,1206.4
517.779968262,1213.1
518.066101074,1255.475
518.352294922,1203.15
518.638366699,1208.45
518.924499512,1298.9
519.210632324,1390.75
519.496643066,1346.825
519.782714844,1229.275
520.068786621,1193.875
520.354736328,1154.2
520.640686035,1103.7
520.926757812,1160.75
521.212646484,1240.625
521.498535156,1254.575
521.784484863,1182.05
522.0703125,1110.725
522.356262207,1136.225
522.642089844,1219.125
522.927856445,1205.2
523.213684082,1202.95
523.499511719,1184.7
523.78527832,1234.925
524.070983887,1289.975
524.356750488,1268.2
524.64239502,1223.75
524.928039551,1214.4
525.213806152,1236.275
525.499389648,1217.2
525.784973145,1244.425
526.070617676,1305.675
526.356140137,1264.775
526.641723633,1282.175
526.927307129,1339.675
527.212768555,1359.225
527.498291016,1332.225
527.783752441,1322.325
528.069213867,1299.8
528.354675293,1324.7
528.640014648,1505.25
528.925476074,1583.775
529.21081543,1497.425
529.496154785,1472.675
529.781555176,1434.675
530.066833496,1454.675
530.352050781,1468.875
530.637390137,1447.65
530.922607422,1452.775
531.207824707,1454.975
531.493041992,1436.975
531.778198242,1512.35
532.063354492,1489.525
532.348571777,1422.0
532.633666992,1444.875
532.918762207,1538.95
533.203857422,1622.75
533.488891602,1660.6
533.773925781,1608.05
534.059020996,1574.8
534.343933105,1598.275
534.628967285,1580.325
534.91394043,1600.075
535.198852539,1604.025
535.483703613,1580.575
535.768676758,1518.325
536.053527832,1515.6
536.338317871,1476.65
536.62322998,1400.25
536.90802002,1377.825
537.192810059,1413.7
537.477539062,1491.65
537.762329102,1538.275
538.047058105,1570.975
538.331726074,1610.75
538.616455078,1597.025
538.901123047,1564.325
539.18572998,1618.925
539.470397949,1629.75
539.755004883,1605.575
540.039550781,1572.85
540.32409668,1515.2
540.608703613,1571.875
540.893188477,1683.125
541.17767334,1695.325
541.462158203,1686.65
541.746643066,1637.45
542.031066895,1676.5
542.315429688,1720.525
542.59979248,1723.925
542.884216309,1706.175
543.168579102,1707.775
543.452941895,1702.75
543.737243652,1758.0
544.021484375,1815.1
544.305725098,1803.975
544.590026855,1783.05
544.874267578,1789.55
545.158447266,1861.15
545.442626953,1774.975
545.726806641,1654.375
546.010925293,1688.45
546.29510498,1732.325
546.579162598,1717.9
546.863220215,1749.75
547.147277832,1835.525
547.431335449,1917.525
547.715332031,1997.225
547.999328613,2120.675
548.283325195,2125.825
548.567260742,1956.375
548.851135254,1935.375
549.135070801,1909.375
549.419006348,1799.25
549.702819824,1896.525
549.986755371,1985.775
550.270507812,1941.175
550.554321289,1991.275
550.83807373,2004.95
551.121826172,1957.55
551.405517578,1974.475
551.689331055,2115.075
551.973022461,2354.425
552.256652832,2421.85
552.540344238,2324.6
552.823974609,2287.025
553.107543945,2289.35
553.391174316,2327.5
553.674743652,2401.225
553.958251953,2425.525
554.241821289,2414.15
554.525268555,2332.25
554.808776855,2339.1
555.092285156,2565.4
555.375671387,2633.0
555.659057617,2633.825
555.942504883,2656.15
556.225891113,2711.95
556.509216309,2667.575
556.792541504,2581.25
557.075866699,2661.975
557.359130859,2677.325
557.64239502,2697.65
557.92565918,2783.075
558.208862305,2752.325
558.49206543,2673.875
558.77532959,2702.075
559.058410645,2755.8
559.341552734,2732.65
559.624694824,2793.0
559.907775879,2888.9
560.190856934,3010.375
560.473937988,2996.25
560.756896973,3042.775
561.039978027,3080.325
561.322937012,3036.0
561.605895996,3030.85
561.88885498,3003.875
562.171813965,2975.45
562.454650879,2968.2
562.737548828,3007.05
563.020446777,3078.35
563.303283691,3111.725
563.58605957,3142.8
563.868896484,3172.0
564.151672363,3220.8
564.434387207,3252.95
564.717163086,3219.175
564.99987793,3257.75
565.282531738,3333.325
565.565185547,3263.675
565.847839355,3276.425
566.130432129,3414.3
566.413085938,3375.475
566.695678711,3395.05
566.978149414,3518.525
567.260681152,3685.7
567.543273926,3750.4
567.825744629,3643.825
568.108154297,3689.6
568.390686035,3824.35
568.673095703,3959.9
568.955505371,4002.975
569.237854004,4047.3
569.520202637,4357.075
569.802490234,4583.45
570.084838867,4562.85
570.367126465,4355.525
570.649414062,4398.7
570.93170166,4758.975
571.213928223,4842.25
571.496154785,4589.475
571.778381348,4824.8
572.06048584,5111.775
572.342590332,4627.175
572.624755859,4224.4
572.906860352,4306.075
573.188903809,5056.575
573.470947266,5316.575
573.752990723,5054.5
574.03503418,5156.1
574.317016602,5579.3
574.598937988,5340.8
574.88092041,5208.325
575.162841797,5404.575
575.444763184,5003.65
575.726623535,4712.275
576.008483887,4755.125
576.290344238,5202.9
576.572143555,5422.7
576.853881836,5513.5
577.135681152,5378.925
577.417419434,5455.325
577.699157715,6389.525
577.980895996,6588.375
578.262573242,5854.175
578.544128418,5331.3
578.825866699,5255.1
579.107421875,4928.55
579.388977051,5125.95
579.670593262,5555.025
579.952148438,5390.925
580.233642578,5502.675
580.515197754,5631.625
580.796691895,5273.75
581.078125,5462.275
581.359619141,7119.075
581.640991211,7221.15
581.922363281,6231.7
582.203796387,6295.75
582.485107422,5877.75
582.766418457,5429.975
583.047790527,5265.525
583.329040527,5163.025
583.610290527,5026.675
583.891540527,5136.875
584.172790527,5474.85
584.453918457,5495.4
584.735107422,5556.475
585.016235352,6065.375
585.297363281,6001.575
585.578552246,5782.6
585.859619141,5732.025
586.140625,5483.475
586.421630859,5323.525
586.702697754,5383.1
586.983642578,5633.675
587.264648438,5815.55
587.545654297,5718.35
587.826477051,5670.0
588.107421875,5467.675
588.388305664,5498.825
588.669189453,5602.85
588.950012207,5457.675
589.230834961,5324.975
589.511657715,5442.125
589.792358398,5531.0
590.073120117,5552.05
590.353881836,5490.325
590.63458252,5536.725
590.915283203,5474.6
591.195922852,5481.225
591.4765625,5525.275
591.757202148,5552.975
592.037780762,5533.15
592.31829834,5548.6
592.598937988,5779.975
592.879394531,5951.825
593.159912109,5846.65
593.440429688,5782.175
593.720825195,5760.6
594.001281738,5734.075
594.281677246,5626.975
594.562072754,5664.875
594.842407227,5769.6
595.122802734,5803.5
595.403137207,5788.1
595.683410645,5760.625
595.963623047,5747.175
596.243896484,5700.625
596.524169922,5701.2
596.804382324,5701.075
597.084533691,5743.6
597.364746094,5778.7
597.644836426,5810.25
597.924987793,5792.325
598.205078125,5740.775
598.485107422,5777.475
598.765197754,5900.4
599.045227051,5959.475
599.325195312,5853.4
599.605224609,5814.9
599.885192871,5871.525
600.165100098,5903.825
600.445007324,5859.85
600.724914551,5829.825
601.004760742,5860.375
601.284667969,5893.725
601.56451416,5825.975
601.844238281,5830.575
602.124084473,5847.625
602.403808594,5855.175
602.683532715,5890.425
602.963256836,5869.1
603.242919922,5910.875
603.522583008,5960.25
603.802246094,5944.125
604.081848145,5907.525
604.36138916,5877.025
604.641052246,5897.575
604.920532227,5873.625
605.200073242,5903.4
605.479614258,5935.675
605.759094238,5977.45
606.038574219,5970.0
606.317932129,5892.575
606.597412109,5895.6
606.87677002,5902.15
607.15612793,5960.3
607.435546875,5966.175
607.714782715,5950.9
607.99407959,5900.65
608.273376465,5887.1
608.552612305,5921.45
608.831848145,5953.35
609.111083984,5922.975
609.390258789,5903.4
609.669433594,5886.225
609.948608398,5942.925
610.227722168,5956.35
610.506713867,5896.825
610.785888672,5913.9
611.064880371,5865.45
611.34387207,5899.875
611.622924805,5910.6
611.901916504,5899.275
612.180847168,5842.8
612.459777832,5870.55
612.738647461,5863.15
613.01751709,5829.4
613.296447754,5781.825
613.575317383,5742.925
613.854064941,5697.85
614.132873535,5600.5
614.411621094,5543.075
614.690368652,5506.55
614.969177246,5440.95
615.247802734,5360.825
615.526489258,5332.45
615.805175781,5213.675
616.08380127,5091.9
616.362365723,5001.2
616.640991211,4948.5
616.919555664,4903.175
617.198059082,5018.0
617.4765625,5302.8
617.755126953,5457.25
618.033569336,5475.725
618.311950684,5466.125
618.590454102,5466.25
618.868774414,5463.875
619.147155762,5467.6
619.425598145,5447.325
619.703857422,5461.775
619.982177734,5477.6
620.260498047,5449.775
620.538757324,5430.9
620.816955566,5428.35
621.095214844,5366.2
621.373413086,5400.15
621.651550293,5450.4
621.929748535,5477.075
622.207824707,5451.175
622.485900879,5474.45
622.764038086,5469.525
623.042053223,5505.975
623.320007324,5533.55
623.598083496,5533.95
623.876037598,5495.175
624.153991699,5511.325
624.432006836,5541.375
624.709838867,5547.25
624.987731934,5533.8
625.265563965,5522.425
625.543395996,5548.275
625.821228027,5621.65
626.098999023,5612.8
626.376831055,5653.6
626.654541016,5671.725
626.932250977,5703.15
627.209960938,5764.775
627.487670898,5784.55
627.765319824,5779.4
628.04296875,5807.225
628.320495605,5800.075
628.598083496,5812.2
628.875671387,5851.95
629.153259277,5884.6
629.430725098,5943.3
629.708251953,5933.775
629.985656738,5958.25
630.263122559,6007.375
630.540588379,6001.475
630.817932129,6051.425
631.095275879,6049.975
631.372680664,6080.5
631.649963379,6151.825
631.927246094,6182.45
632.204589844,6220.825
632.481811523,6288.925
632.759033203,6384.625
633.036254883,6415.4
633.313415527,6483.425
633.590576172,6537.475
633.867736816,6665.65
634.144836426,6745.25
634.421875,6766.675
634.698913574,6839.75
634.976013184,6861.875
635.252990723,6947.475
635.529968262,6993.7
635.807006836,7076.675
636.08392334,7059.7
636.360839844,6957.225
636.637756348,6856.25
636.914611816,6849.475
637.191467285,6810.05
637.468261719,6877.225
637.745056152,6840.0
638.021789551,6885.325
638.298583984,6893.025
638.575317383,6950.75
638.851989746,6950.575
639.12878418,6951.675
639.405395508,6932.9
639.682006836,6986.05
639.958618164,6969.25
640.235229492,6962.975
640.511779785,6991.55
640.788330078,6959.55
641.064880371,6954.325
641.341308594,6950.25
641.617797852,6962.35
641.894226074,6977.05
642.170654297,6992.725
642.44708252,6995.875
642.723388672,6989.775
642.999755859,6945.475
643.276123047,6996.325
643.552429199,6950.775
643.828674316,6971.225
644.104919434,6932.275
644.381164551,6952.15
644.657348633,6966.65
644.933532715,6913.25
645.209716797,6948.5
645.485839844,6935.5
645.761901855,6934.025
646.038024902,6926.425
646.314086914,6970.775
646.590087891,6926.95
646.866149902,6970.75
647.142150879,6912.6
647.41809082,6890.0
647.694030762,6906.95
647.969970703,6885.125
648.245788574,6935.775
648.521728516,6902.725
648.797546387,6896.825
649.073303223,6937.15
649.349182129,6897.55
649.624938965,6894.75
649.900634766,6910.85
650.176391602,6916.8
650.452087402,6882.975
650.727783203,6902.475
651.003479004,6891.925
651.279052734,6891.55
651.554626465,6865.6
651.83026123,6875.575
652.105773926,6881.875
652.381286621,6847.825
652.656860352,6881.275
652.932312012,6857.975
653.207763672,6874.475
653.483215332,6912.85
653.758605957,6899.8
654.033935547,6887.675
654.309326172,6910.325
654.584716797,6920.025
654.859985352,6889.15
655.135253906,6940.325
655.410583496,6957.775
655.685791016,8021.475
655.9609375,12451.35
656.236206055,12173.05
656.511291504,8081.025
656.786437988,7112.275
657.061645508,7012.025
657.336669922,6980.525
657.611694336,6994.475
657.886779785,7018.2
658.161804199,7063.325
658.436828613,7030.025
658.711791992,7052.55
658.986755371,7087.6
659.261657715,7091.8
659.536621094,7086.975
659.811401367,7113.925
660.086303711,7140.45
660.36114502,7116.625
660.635864258,7129.925
660.910644531,7162.725
661.185424805,7152.35
661.460205078,7160.95
661.734863281,7163.725
662.009521484,7146.675
662.284179688,7197.525
662.558776855,7235.4
662.833435059,7266.075
663.108032227,7284.575
663.382568359,7244.5
663.657043457,7299.75
663.93157959,7338.725
664.206054688,7278.95
664.48046875,7354.4
664.755004883,7376.8
665.02935791,7399.725
665.303710938,7405.375
665.578125,7458.275
665.852416992,7431.325
666.126708984,7425.65
666.401062012,7440.75
666.675292969,7489.0
666.949462891,7493.775
667.223754883,7492.025
667.497924805,7532.325
667.772094727,7579.15
668.046264648,7518.375
668.3203125,7585.975
668.594421387,7604.725
668.868469238,7602.7
669.14251709,7633.8
669.416503906,7647.3
669.690551758,7675.075
669.964477539,7657.85
670.23840332,7687.1
670.512329102,7705.6
670.786254883,7689.825
671.060058594,7743.525
671.333984375,7758.125
671.607788086,7794.375
671.881530762,7787.15
672.155334473,7833.425
672.429077148,7832.075
672.702758789,7867.775
672.97644043,7828.275
673.25012207,7818.975
673.523742676,7853.575
673.797302246,7849.125
674.070922852,7906.4
674.344482422,7923.75
674.618041992,7924.675
674.891601562,7936.825
675.165100098,7923.375
675.438476562,7949.225
675.711975098,7976.175
675.985412598,7947.6
676.258789062,7951.95
676.532165527,7978.175
676.805480957,7978.425
677.078796387,8033.975
677.352111816,8049.975
677.625366211,8025.3
677.898620605,8010.125
678.171875,8084.7
678.445007324,8093.75
678.718200684,8103.825
678.991394043,8091.5
679.264404297,8112.75
679.537536621,8167.45
679.81060791,8162.6
680.083679199,8164.075
680.356689453,8160.075
680.629699707,8202.25
680.902648926,8145.175
681.175598145,8197.925
681.448547363,8236.7
681.721435547,8212.85
681.99420166,8210.425
682.267150879,8181.475
682.539916992,8294.15
682.812744141,8234.425
683.085510254,8233.925
683.358215332,8257.2
683.63092041,8260.675
683.903625488,8259.85
684.176330566,8251.275
684.448913574,8230.2
684.721557617,8233.6
684.99420166,8316.65
685.266662598,8275.2
685.539245605,8306.925
685.811767578,8340.6
686.084289551,8336.625
686.356689453,8387.975
686.629150391,8420.0
686.901550293,8460.35
687.17401123,8440.0
687.446350098,8471.4
687.718688965,8467.325
687.990966797,8536.5
688.263305664,8544.775
688.535522461,8512.4
688.807739258,8512.4
689.079956055,8592.3
689.352172852,8604.6
689.624328613,8593.9
689.896484375,8623.925
690.168518066,8598.375
690.440612793,8648.175
690.71270752,8655.1
690.984741211,8672.225
691.256713867,8692.35
691.528747559,8691.625
691.800720215,8697.6
692.072631836,8735.425
692.344543457,8764.65
692.616394043,8792.0
692.888244629,8805.325
693.160095215,8859.625
693.431945801,8849.7
693.703674316,8835.575
693.975463867,8818.4
694.247131348,8852.575
694.518859863,8848.925
694.790588379,8892.25
695.062255859,8895.475
695.33380127,8867.45
695.60546875,8898.6
695.87701416,8929.175
696.148498535,8967.475
696.42010498,8994.175
696.691589355,9020.925
696.96307373,9036.2
697.234558105,9077.675
697.50592041,9085.175
697.777282715,9074.625
698.048706055,9074.875
698.320068359,9129.975
698.591308594,9102.5
698.862670898,9128.05
699.133972168,9180.075
699.405151367,9136.6
699.676391602,9198.35
699.947570801,9144.025
700.21875,9169.175
700.489868164,9180.0
700.761047363,9184.35
701.032104492,9229.3
701.303100586,9205.675
701.57421875,9235.95
701.845214844,9244.45
702.116149902,9276.875
702.387207031,9246.075
702.65814209,9266.25
702.928955078,9331.425
703.199951172,9294.25
703.47076416,9258.0
703.741577148,9272.025
704.012451172,9327.6
704.28314209,9351.8
704.553955078,9305.825
704.824707031,9367.575
705.095397949,9392.2
705.366027832,9418.9
705.63671875,9401.6
705.907348633,9392.45
706.17791748,9403.175
706.448486328,9431.85
706.719055176,9463.575
706.989562988,9475.075
707.260131836,9506.575
707.530517578,9508.2
707.800964355,9512.4
708.071411133,9466.75
708.341796875,9446.075
708.612182617,9425.05
708.882446289,9413.3
709.152893066,9475.375
709.423156738,9513.1
709.693359375,9470.25
709.963623047,9513.05
710.233825684,9535.05
710.503967285,9492.1
710.774169922,9528.375
711.044311523,9510.55
711.31439209,9498.925
711.584533691,9540.675
711.854553223,9530.05
712.124572754,9558.025
712.39465332,9491.2
712.664611816,9546.875
712.934509277,9577.55
713.204467773,9529.475
713.474365234,9611.725
713.74420166,9579.325
714.014099121,9625.675
714.283874512,9610.125
714.553710938,9659.95
714.823486328,9625.5
715.093200684,9606.05
715.362915039,9605.25
715.632629395,9574.8
715.902282715,9577.725
716.171875,9577.35
716.441589355,9590.8
716.711181641,9558.375
716.980712891,9607.7
717.250244141,9597.325
717.519775391,9577.9
717.78918457,9574.95
718.058654785,9639.65
718.328125,9687.225
718.597473145,9652.525
718.866882324,9635.525
719.136230469,9636.375
719.405578613,9662.95
719.674865723,9699.925
719.944152832,9678.55
720.213439941,9614.2
720.48260498,9702.525
720.75177002,9716.025
721.020996094,9681.875
721.290100098,9688.55
721.559204102,9668.65
721.828308105,9719.925
722.097351074,9713.55
722.366455078,9679.85
722.635437012,9668.6
722.904418945,9637.1
723.173400879,9682.625
723.442321777,9710.175
723.711181641,9698.0
723.980102539,9713.825
724.248962402,9681.425
724.51776123,9667.125
724.786560059,9687.525
725.055358887,9698.2
725.324035645,9665.625
725.592834473,9695.6
725.86151123,9640.675
726.130187988,9628.1
726.398803711,9623.8
726.667419434,9648.175
726.935974121,9643.175
727.204528809,9599.325
727.473083496,9642.125
727.741638184,9594.2
728.010070801,9555.65
728.278564453,9561.5
728.546936035,9566.275
728.815368652,9496.65
729.08380127,9419.925
729.352111816,9406.725
729.620361328,9320.55
729.88873291,9391.25
730.156982422,9441.85
730.425231934,9419.325
730.693481445,9426.1
730.961669922,9455.175
731.229797363,9507.3
731.49798584,9513.825
731.766113281,9614.525
732.034118652,9640.275
732.302246094,9702.9
732.570251465,9734.85
732.838256836,9781.375
733.106262207,9856.225
733.374145508,9877.8
733.642089844,9941.525
733.909973145,9976.675
734.177856445,10092.175
734.445678711,10183.175
734.713562012,10298.05
734.981323242,10270.425
735.249084473,10321.65
735.516845703,10510.35
735.784545898,10550.725
736.052185059,10607.875
736.319885254,10720.925
736.587524414,10775.4
736.855102539,10841.025
737.122619629,10984.325
737.390197754,10986.225
737.657714844,11121.6
737.925170898,11164.925
738.192749023,11291.375
738.460144043,11361.625
738.727539062,11375.2
738.994995117,11492.225
739.262329102,11596.6
739.529663086,11727.75
739.79699707,11771.2
740.06427002,11813.125
740.331481934,11887.65
740.598754883,11969.025
740.865905762,11973.55
741.133056641,12136.125
741.40032959,12142.15
741.667358398,12224.65
741.934448242,12265.375
742.201599121,12299.025
742.468566895,12430.975
742.735534668,12454.2
743.002563477,12500.3
743.26953125,12474.725
743.536437988,12536.975
743.803405762,12638.3
744.0703125,12631.15
744.337097168,12750.575
744.604003906,12663.675
744.870727539,12734.85
745.137512207,12795.625
745.40423584,12797.0
745.670959473,12753.325
745.93762207,12778.025
746.204284668,12813.95
746.470947266,12847.575
746.737548828,12842.575
747.004089355,12881.425
747.270751953,12879.425
747.53717041,12939.95
747.803710938,12844.8
748.070251465,12820.175
748.336608887,12839.925
748.603027344,12808.825
748.869445801,12797.825
749.135803223,12797.0
749.402099609,12810.475
749.668457031,12814.2
749.934753418,12769.975
750.20098877,12715.9
750.467224121,12791.975
750.733459473,12747.55
750.999572754,12730.65
751.26574707,12602.825
751.531860352,12653.275
751.797912598,12630.7
752.064025879,12547.4
752.330078125,12570.45
752.596069336,12557.9
752.862060547,12519.875
753.127990723,12528.95
753.393920898,12487.025
753.659912109,12431.275
753.925720215,12476.55
754.19152832,12436.175
754.457397461,12346.075
754.723144531,12311.2
754.988952637,12252.425
755.254699707,12310.15
755.520385742,12343.675
755.786071777,12312.025
756.051696777,12311.075
756.317382812,12244.325
756.582946777,12190.025
756.848510742,12220.15
757.114074707,12101.15
757.379577637,12122.625
757.645080566,12206.25
757.910583496,12144.225
758.175964355,12083.625
758.441345215,12080.0
758.706848145,11888.275
758.972106934,11906.45
759.237426758,11924.375
759.502807617,11955.35
759.768005371,11944.45
760.03326416,11898.75
760.298522949,11819.4
760.563659668,11900.65
760.828857422,11848.85
761.093994141,11843.675
761.359130859,11766.775
761.624206543,11727.9
761.889282227,11686.325
762.15423584,11674.95
762.419250488,11628.3
762.684265137,11588.075
762.949157715,11537.625
763.214050293,11570.65
763.479003906,11555.2
763.743835449,11537.125
764.008666992,11492.3
764.2734375,11460.05
764.538208008,11539.45
764.802978516,11532.275
765.067687988,11489.025
765.332397461,11496.625
765.597045898,11417.75
765.861694336,11398.475
766.126342773,11365.4
766.390930176,11352.3
766.655395508,11309.1
766.920043945,11262.225
767.184509277,11274.225
767.448974609,11263.25
767.713439941,11228.6
767.977783203,11172.075
768.2421875,11200.3
768.506591797,11135.45
768.770874023,11252.625
769.03515625,11191.9
769.299499512,11149.525
769.563720703,11168.45
769.827941895,11098.0
770.092163086,11075.0
770.356323242,11053.575
770.620483398,11108.425
770.88458252,11101.225
771.148681641,11074.475
771.412719727,11058.825
771.676757812,11050.2
771.940734863,10995.775
772.204711914,10989.0
772.468688965,10973.675
772.73260498,10956.275
772.996459961,10959.525
773.260314941,9796.6
773.524169922,1252.025
773.787963867,155.25
774.051696777,120.3
774.315551758,121.15
774.579223633,120.35
774.842895508,118.55
775.106567383,120.125
775.370239258,118.175
775.633789062,121.85
775.897399902,126.775
776.160949707,119.375
776.424499512,121.975
776.687988281,123.275
776.951477051,126.65
777.214904785,119.1
777.47833252,120.675
