191.299911499,98.75
191.603515625,105.0
191.907119751,97.5
192.210693359,104.65
192.514251709,98.075
192.817810059,103.9
193.121368408,103.15
193.42489624,104.875
193.728408813,99.125
194.031936646,102.425
194.33543396,96.85
194.638916016,112.45
194.94241333,97.925
195.245880127,97.45
195.549331665,95.65
195.852767944,98.975
196.156204224,172.725
196.459625244,167.0
196.763015747,169.5
197.066436768,177.3
197.369812012,167.075
197.673187256,172.025
197.9765625,159.175
198.279922485,167.65
198.583251953,164.625
198.886581421,169.35
199.18989563,172.425
199.493209839,170.3
199.79649353,162.95
200.09979248,173.2
200.403076172,165.275
200.706314087,171.675
201.009567261,171.375
201.312820435,170.325
201.616027832,162.5
201.919235229,158.45
202.222457886,162.8
202.525634766,167.6
202.828826904,158.575
203.132003784,160.3
203.435150146,160.775
203.738296509,162.875
204.041412354,159.975
204.344558716,166.125
204.647659302,166.125
204.950759888,169.625
205.253845215,167.2
205.556930542,162.375
205.859985352,162.275
206.163024902,162.475
206.466079712,162.25
206.769104004,169.275
207.072113037,162.525
207.375137329,162.925
207.678131104,164.125
207.981109619,166.0
208.284088135,158.275
208.587036133,166.675
208.889984131,166.175
209.19291687,170.65
209.495849609,168.175
209.798751831,165.85
210.101654053,165.925
210.404556274,166.35
210.707427979,166.525
211.010269165,172.25
211.31312561,170.45
211.615982056,171.95
211.918807983,169.625
212.221618652,167.0
212.524429321,164.25
212.827224731,173.325
213.130004883,166.575
213.432769775,172.0
213.735534668,167.5
214.038269043,171.575
214.341003418,168.65
214.643737793,171.425
214.946456909,174.1
215.249145508,174.25
215.551834106,171.775
215.854507446,173.125
216.157165527,175.25
216.45980835,171.175
216.762451172,177.175
217.065078735,178.175
217.36769104,173.575
217.670303345,180.025
217.972885132,180.8
218.275466919,181.425
218.578048706,176.225
218.880599976,186.4
219.183120728,183.6
219.485656738,184.05
219.788192749,193.425
220.090682983,203.15
220.393188477,216.475
220.695663452,236.45
220.998138428,252.85
221.300582886,285.425
221.603042603,296.525
221.905487061,326.45
222.207901001,360.0
222.510299683,396.675
222.812728882,446.6
223.115097046,486.45
223.41746521,542.95
223.719848633,583.425
224.022171021,617.05
224.324508667,662.1
224.626846313,724.575
224.929168701,767.8
225.231460571,821.15
225.533737183,866.4
225.836013794,901.675
226.138290405,943.725
226.440536499,979.075
226.742767334,1014.55
227.044998169,1050.025
227.347213745,1090.325
227.649429321,1113.7
227.951629639,1138.3
228.253799438,1166.075
228.555953979,1183.2
228.858123779,1213.725
229.160263062,1223.1
229.462371826,1238.65
229.764511108,1244.6
230.066619873,1258.025
230.36869812,1275.025
230.670776367,1274.3
230.972854614,1286.2
231.274902344,1310.35
231.576950073,1324.85
231.878967285,1324.65
232.180999756,1347.725
232.48298645,1366.675
232.784988403,1364.125
233.086975098,1372.875
233.388946533,1377.975
233.69090271,1406.05
233.992858887,1422.25
234.294769287,1404.7
234.596694946,1409.375
234.898605347,1427.8
235.200500488,1418.6
235.502380371,1423.625
235.804244995,1413.475
236.106109619,1400.0
236.407958984,1428.325
236.709777832,1401.525
237.011581421,1409.025
237.313400269,1389.55
237.615203857,1400.875
237.916976929,1399.975
238.21875,1390.7
238.520507812,1369.9
238.822250366,1379.375
239.12399292,1369.875
239.425704956,1386.475
239.727401733,1366.75
240.02911377,1368.9
240.330780029,1353.275
240.632446289,1346.725
240.93409729,1355.625
241.23576355,1355.675
241.537384033,1349.55
241.839004517,1365.05
242.140594482,1358.3
242.442199707,1365.375
242.743774414,1362.6
243.045333862,1363.85
243.346923828,1364.45
243.648452759,1358.675
243.949966431,1363.825
244.251495361,1371.3
244.552993774,1375.8
244.854492188,1360.85
245.155975342,1352.375
245.457443237,1372.95
245.758880615,1366.975
246.060333252,1379.325
246.36177063,1344.275
246.66317749,1354.175
246.964569092,1340.45
247.265945435,1362.625
247.567337036,1339.275
247.86869812,1360.9
248.170059204,1361.775
248.471389771,1360.725
248.772705078,1380.175
249.074035645,1401.075
249.375335693,1397.4
249.676620483,1422.45
249.977890015,1433.125
250.279159546,1461.175
250.58039856,1478.625
250.881637573,1490.6
251.182876587,1513.125
251.484069824,1541.125
251.785263062,1564.325
252.086456299,1601.1
252.387619019,1624.675
252.688781738,1640.0
252.989929199,1682.825
253.291061401,1714.7
253.592178345,1763.325
253.893280029,1798.2
254.194366455,1822.7
254.49546814,1859.0
254.796524048,1883.35
255.097579956,1922.25
255.398620605,1940.375
255.699645996,1985.1
256.000640869,1995.925
256.30166626,2037.675
256.602661133,2083.3
256.903656006,2072.275
257.204589844,2111.375
257.505523682,2135.175
257.80645752,2152.3
258.107391357,2187.15
258.408294678,2207.025
258.709228516,2215.875
259.010070801,2224.05
259.310943604,2249.375
259.611846924,2260.425
259.912658691,2262.925
260.213500977,2278.725
260.514343262,2278.225
260.815124512,2276.35
261.115936279,2295.125
261.416717529,2316.3
261.717468262,2312.4
262.018218994,2343.525
262.318969727,2354.75
262.619689941,2419.325
262.920410156,2457.7
263.221130371,2479.15
263.521789551,2520.65
263.822479248,2570.15
264.123138428,2611.475
264.42376709,2646.325
264.72442627,2667.025
265.025054932,2687.45
265.325622559,2720.275
265.626251221,2750.0
265.926818848,2763.1
266.227386475,2757.4
266.527954102,2761.725
266.828460693,2797.45
267.12902832,2790.55
267.429534912,2774.325
267.730010986,2783.4
268.030517578,2782.825
268.330993652,2793.6
268.631439209,2798.0
268.931915283,2819.05
269.232299805,2806.875
269.532745361,2828.625
269.8331604,2819.8
270.133544922,2838.175
270.433929443,2854.95
270.734313965,2863.225
271.034637451,2908.375
271.334991455,2895.625
271.635314941,2947.975
271.935638428,2959.1
272.235931396,3012.775
272.536254883,3041.55
272.836486816,3099.775
273.136749268,3145.575
273.437011719,3236.3
273.737213135,3311.15
274.037445068,3360.75
274.337677002,3435.0
274.6378479,3522.425
274.938049316,3606.525
275.238220215,3682.2
275.538360596,3779.225
275.838500977,3831.125
276.138641357,3944.275
276.438751221,4010.25
276.738830566,4074.45
277.03894043,4143.175
277.338989258,4246.675
277.639038086,4319.8
277.939056396,4370.375
278.239105225,4450.5
278.539093018,4519.775
278.839141846,4601.75
279.139129639,4659.075
279.439086914,4713.575
279.739044189,4768.75
280.039001465,4854.1
280.338928223,4926.825
280.63885498,4972.625
280.938781738,5034.4
281.238647461,5085.325
281.538513184,5140.225
281.838409424,5176.25
282.138244629,5243.95
282.438079834,5267.7
282.737945557,5300.125
283.037719727,5351.425
283.337524414,5381.725
283.637298584,5432.25
283.937072754,5482.075
284.236816406,5514.9
284.536560059,5514.8
284.836303711,5565.675
285.136016846,5622.025
285.43572998,5653.975
285.735412598,5655.025
286.035064697,5690.95
286.334747314,5741.6
286.634368896,5775.275
286.933990479,5762.8
287.233642578,5729.225
287.533203125,5758.05
287.832824707,5730.9
288.132385254,5700.8
288.431945801,5627.0
288.731506348,5559.275
289.031036377,5432.325
289.330566406,5355.925
289.630065918,5378.275
289.92956543,5375.325
290.229034424,5453.975
290.528503418,5606.15
290.827941895,5755.375
291.127380371,5857.35
291.42678833,5974.45
291.726226807,6077.275
292.025604248,6145.025
292.324981689,6176.7
292.624359131,6217.325
292.923736572,6225.075
293.223052979,6262.25
293.522369385,6278.55
293.821685791,6250.375
294.12097168,6231.325
294.420257568,6235.95
294.719543457,6219.525
295.018768311,6244.7
295.318023682,6197.725
295.617248535,6174.525
295.916442871,6123.425
296.215667725,6105.1
296.514862061,5991.65
296.813995361,5838.85
297.11315918,5679.225
297.412322998,5580.55
297.711425781,5557.375
298.010559082,5701.85
298.309631348,5864.15
298.608734131,6035.025
298.907806396,6198.9
299.206848145,6342.55
299.505889893,6394.2
299.804901123,6471.35
300.103912354,6539.725
300.402954102,6625.7
300.701904297,6670.275
301.00088501,6718.55
301.299835205,6775.05
301.5987854,6816.525
301.897735596,6872.425
302.196624756,6936.5
302.495513916,7013.925
302.794403076,7047.275
303.093292236,7082.625
303.392120361,7127.575
303.690979004,7195.225
303.989837646,7232.05
304.288604736,7277.025
304.587402344,7286.375
304.886199951,7312.65
305.184967041,7353.0
305.483734131,7390.25
305.782501221,7435.0
306.081176758,7464.325
306.37991333,7461.5
306.678619385,7478.625
306.977294922,7522.9
307.275970459,7534.375
307.574645996,7535.825
307.873260498,7523.65
308.171875,7530.05
308.470489502,7511.475
308.769104004,7463.6
309.067687988,7486.0
309.366241455,7473.8
309.664794922,7423.975
309.963348389,7468.4
310.261871338,7446.65
310.560394287,7461.525
310.858856201,7458.8
311.157348633,7508.5
311.455810547,7511.7
311.754272461,7517.975
312.052703857,7592.075
312.351135254,7605.65
312.649536133,7604.225
312.947937012,7576.1
313.246307373,7619.775
313.544647217,7613.425
313.843017578,7571.575
314.141387939,7548.45
314.439697266,7590.0
314.738006592,7514.525
315.036315918,7471.45
315.334564209,7392.05
315.6328125,7361.45
315.931091309,7298.775
316.229309082,7173.475
316.527526855,7108.9
316.825744629,7062.2
317.123901367,6981.95
317.422088623,6919.35
317.720245361,6952.65
318.0184021,6967.225
318.316497803,6992.825
318.614654541,7008.025
318.912750244,7082.9
319.21081543,7102.7
319.50894165,7128.275
319.806945801,7118.425
320.104980469,7111.35
320.403045654,7109.275
320.701049805,7085.825
320.999023438,7071.925
321.297027588,7030.95
321.595001221,7026.6
321.892913818,7009.6
322.190887451,6946.375
322.488830566,6870.625
322.786712646,6861.725
323.084625244,6773.55
323.382507324,6773.375
323.680358887,6709.075
323.978210449,6630.75
324.276062012,6577.45
324.573852539,6535.025
324.871643066,6489.725
325.169464111,6440.425
325.467224121,6399.575
325.764984131,6322.925
326.062744141,6259.9
326.360473633,6224.925
326.658203125,6170.7
326.955871582,6098.95
327.253570557,6086.15
327.551239014,6013.025
327.848907471,5939.025
328.146514893,5894.175
328.444152832,5838.925
328.741790771,5811.675
329.039367676,5764.375
329.336914062,5690.975
329.634521484,5648.625
329.932067871,5627.15
330.229553223,5562.0
330.527160645,5503.75
330.824615479,5459.775
331.12210083,5393.1
331.419586182,5314.925
331.717041016,5259.825
332.014465332,5192.75
332.311920166,5164.65
332.609313965,5127.925
332.906707764,5118.65
333.204101562,5089.775
333.501495361,5098.25
333.798828125,5154.025
334.096160889,5179.325
334.39352417,5231.125
334.690795898,5288.175
334.988098145,5325.25
335.285400391,5356.4
335.582641602,5339.75
335.879882812,5400.0
336.177124023,5397.9
336.474334717,5480.975
336.77154541,5461.125
337.068725586,5494.675
337.365905762,5505.875
337.66305542,5513.35
337.960205078,5532.275
338.257324219,5529.6
338.554443359,5525.3
338.8515625,5573.075
339.148590088,5554.9
339.445648193,5586.85
339.742736816,5529.925
340.039764404,5525.225
340.336761475,5504.775
340.63381958,5457.9
340.930755615,5425.625
341.227722168,5356.9
341.524688721,5301.325
341.821624756,5262.575
342.118560791,5283.225
342.415496826,5356.6
342.712402344,5468.85
343.009246826,5589.175
343.306121826,5684.875
343.602966309,5722.225
343.899810791,5803.55
344.196624756,5886.725
344.493438721,5888.1
344.79019165,5951.425
345.086975098,5986.2
345.383758545,6030.15
345.680480957,6011.8
345.977203369,6019.8
346.273956299,6057.9
346.570617676,6048.275
346.86730957,6060.125
347.163970947,6056.575
347.460601807,6080.1
347.757232666,6075.475
348.053894043,6076.375
348.350463867,6020.55
348.647064209,6001.925
348.943634033,6007.325
349.24017334,6019.375
349.536712646,5955.4
349.833251953,5976.875
350.129760742,5952.475
350.426208496,5941.975
350.722747803,5926.4
351.019195557,5924.925
351.315612793,5883.525
351.612060547,5859.875
351.908508301,5804.0
352.204864502,5751.875
352.501281738,5729.7
352.797637939,5669.05
353.093963623,5583.075
353.390319824,5519.925
353.686645508,5476.875
353.982940674,5421.475
354.27923584,5377.9
354.575531006,5332.75
354.871765137,5328.45
355.167999268,5296.8
355.464233398,5317.3
355.760437012,5314.975
356.056640625,5314.625
356.352813721,5322.65
356.648956299,5306.15
356.945129395,5315.325
357.241271973,5328.075
357.537384033,5362.1
357.833496094,5314.5
358.129577637,5282.125
358.425628662,5246.025
358.721679688,5228.9
359.017730713,5225.075
359.313720703,5194.0
359.609710693,5166.1
359.905761719,5119.475
360.201721191,5070.775
360.497650146,5008.7
360.793609619,5007.875
361.089538574,4942.625
361.385437012,4878.925
361.681365967,4821.1
361.977233887,4792.6
362.273071289,4753.425
362.568908691,4663.525
362.864746094,4569.2
363.160552979,4435.925
363.456359863,4285.35
363.752166748,4181.375
364.047912598,4089.65
364.343658447,4084.125
364.639434814,4083.7
364.935119629,4125.425
365.230834961,4190.5
365.526550293,4217.4
365.822174072,4229.325
366.117858887,4247.95
366.413482666,4275.75
366.709075928,4296.075
367.004730225,4220.85
367.300292969,4221.7
367.595855713,4261.25
367.891448975,4162.475
368.186981201,4086.275
368.482513428,4040.075
368.778015137,4032.15
369.073547363,3998.475
369.36895752,4002.4
369.664428711,3935.4
369.95993042,3812.925
370.255310059,3798.475
370.550720215,3749.675
370.846160889,3742.125
371.14151001,3714.525
371.436859131,3674.225
371.73223877,3669.675
372.027557373,3628.35
372.322875977,3584.15
372.618164062,3575.25
372.913482666,3531.4
373.208709717,3517.3
373.503967285,3457.3
373.799194336,3426.5
374.094421387,3405.975
374.389648438,3397.825
374.684844971,3391.575
374.979980469,3438.325
375.275146484,3458.225
375.570281982,3472.45
375.865386963,3474.875
376.160522461,3418.15
376.455596924,3426.75
376.750640869,3500.825
377.045715332,3520.175
377.340759277,3561.15
377.635772705,3605.65
377.93081665,3620.8
378.225769043,3682.75
378.520751953,3753.625
378.815734863,3687.825
379.110656738,3839.275
379.405548096,3989.7
379.700500488,3865.45
379.995391846,3689.85
380.290252686,3715.15
380.585083008,3808.225
380.879974365,3856.225
381.17477417,3778.325
381.469543457,3718.75
381.764404297,3699.35
382.059143066,3739.825
382.353912354,3815.65
382.648651123,3894.175
382.943389893,3868.45
383.238067627,3723.0
383.532775879,3724.175
383.827484131,3679.4
384.12210083,3669.825
384.416778564,3636.525
384.711425781,3561.15
385.006011963,3579.825
385.300628662,3567.675
385.595184326,3635.775
385.88973999,3716.225
386.184295654,3818.275
386.478820801,3879.975
386.77331543,3951.4
387.067840576,4051.925
387.362335205,4125.625
387.656768799,4181.825
387.951202393,4223.225
388.245635986,4277.575
388.540039062,4357.7
388.834472656,4407.95
389.128875732,4313.725
389.423187256,4143.975
389.717559814,4067.25
390.011871338,4161.75
390.306182861,4195.4
390.600463867,4222.025
390.894775391,4287.9
391.189025879,4304.2
391.48324585,4297.95
391.777526855,4337.15
392.071685791,4534.775
392.365875244,4605.3
392.660064697,4683.6
392.95425415,4965.0
393.248382568,4966.175
393.542510986,4520.25
393.836608887,4379.9
394.130706787,4393.225
394.424804688,4329.25
394.71887207,4436.8
395.012878418,4411.425
395.306915283,4322.575
395.600921631,4267.0
395.894927979,4229.625
396.188903809,4290.85
396.482879639,4284.575
396.776794434,4476.775
397.070739746,4437.875
397.364654541,4469.8
397.658538818,4801.85
397.952423096,4821.475
398.246307373,4789.5
398.540100098,5251.675
398.833953857,5137.65
399.127746582,4709.55
399.421508789,4723.075
399.715301514,4665.425
400.009063721,4587.7
400.30279541,4467.0
400.596496582,4391.65
400.890258789,4537.95
401.183929443,4614.15
401.47756958,4503.75
401.771240234,4313.375
402.064880371,4304.55
402.35848999,4370.35
402.652130127,4281.425
402.945678711,4345.625
403.239257812,4289.6
403.532775879,4256.925
403.82635498,4277.175
404.119842529,4208.975
404.413360596,4199.7
404.706848145,4255.7
405.000274658,4174.575
405.293762207,4256.475
405.587188721,4293.45
405.880584717,4154.2
406.17401123,4007.425
406.467407227,3825.7
406.760742188,3827.025
407.054107666,3865.675
407.347442627,3798.2
407.640716553,3770.05
407.934051514,3840.7
408.227325439,3907.475
408.520568848,4081.95
408.813842773,4168.4
409.107086182,3989.7
409.400238037,3952.775
409.693450928,3878.9
409.986633301,3983.0
410.279754639,3900.8
410.572875977,3641.825
410.86605835,3586.075
411.159118652,3608.375
411.452209473,3621.8
411.745330811,3480.525
412.038360596,3421.3
412.331390381,3448.375
412.624420166,3482.85
412.917388916,3408.05
413.210388184,3258.475
413.503387451,3229.7
413.796295166,3146.5
414.089233398,2981.025
414.382141113,2922.525
414.675048828,2902.675
414.967926025,2923.35
415.260803223,2878.3
415.55368042,2903.875
415.846466064,2870.775
416.139282227,2935.1
416.432098389,3049.0
416.724853516,3036.075
417.017608643,2983.075
417.31036377,3008.925
417.603088379,3103.175
417.895782471,3097.375
418.188476562,3068.3
418.481140137,3121.325
418.773803711,3186.175
419.066436768,3150.525
419.359039307,3233.25
419.651641846,3216.2
419.944244385,3217.4
420.236816406,3185.9
420.529327393,3366.7
420.821899414,3429.825
421.114379883,3367.725
421.406860352,3606.825
421.699371338,3787.525
421.991821289,3751.3
422.284240723,3586.625
422.576721191,3438.85
422.869110107,3354.275
423.161468506,3319.4
423.453857422,3344.725
423.74621582,3230.275
424.038543701,3105.7
424.330871582,3080.4
424.623168945,3022.575
424.915435791,3148.35
425.207702637,3106.25
425.499969482,3068.475
425.792205811,3012.725
426.084411621,2795.225
426.376617432,2877.025
426.668762207,2911.95
426.9609375,2818.85
427.253082275,2914.975
427.545196533,3275.975
427.837310791,3031.725
428.129425049,2783.0
428.421447754,2970.075
428.713531494,2975.6
429.005554199,2972.775
429.297576904,2981.675
429.589599609,3349.275
429.881561279,3625.175
430.173522949,3425.85
430.465484619,3393.1
430.757415771,3449.475
431.049316406,3265.95
431.341186523,3053.9
431.633117676,2961.95
431.924957275,2696.3
432.21673584,2604.325
432.508636475,2750.975
432.800415039,2749.85
433.092163086,2653.525
433.383972168,2625.625
433.675689697,3249.4
433.967437744,3676.425
434.259155273,2851.675
434.550872803,2588.975
434.842498779,2622.7
435.134185791,2737.275
435.425842285,2755.975
435.717437744,2680.75
436.009063721,2519.175
436.30065918,2636.65
436.592224121,2944.025
436.883758545,2763.575
437.175323486,2549.3
437.466827393,2509.0
437.758331299,2532.1
438.049804688,2538.575
438.341247559,2601.05
438.63269043,2657.275
438.924163818,2656.325
439.215515137,2633.65
439.50692749,2547.1
439.798309326,2548.2
440.089660645,2547.4
440.380981445,2473.8
440.672332764,2473.3
440.963623047,2702.975
441.254882812,3104.625
441.546173096,3277.05
441.837402344,3042.6
442.128631592,2877.6
442.41986084,2880.15
442.711029053,2753.875
443.002197266,2820.725
443.293365479,2979.0
443.584503174,3105.05
443.875610352,3070.625
444.166717529,2838.275
444.457794189,2893.825
444.748840332,2878.6
445.039916992,2815.025
445.330932617,2928.2
445.621948242,2777.55
445.912963867,2614.275
446.203918457,2810.475
446.494812012,3009.0
446.785827637,2831.05
447.076721191,2675.35
447.367584229,2662.375
447.658447266,2624.425
447.949371338,2687.7
448.24017334,2558.625
448.530975342,2508.475
448.821838379,2652.5
449.112579346,2719.725
449.40335083,2665.475
449.694152832,2691.05
449.984863281,2697.975
450.27557373,2638.7
450.56628418,2685.025
450.856933594,2714.075
451.147583008,2562.075
451.438262939,2477.05
451.728881836,2655.875
452.019470215,2747.35
452.310089111,2556.65
452.600646973,2580.075
452.891174316,2645.95
453.181732178,2470.225
453.472229004,2368.075
453.762695312,2453.075
454.053222656,2462.775
454.343658447,2349.9
454.634063721,2309.05
454.924530029,2452.1
455.214935303,2594.15
455.505279541,2646.2
455.795715332,2522.25
456.086029053,2347.05
456.376312256,2338.55
456.666687012,2350.425
456.956939697,2452.725
457.247192383,2458.45
457.537445068,2511.075
457.827728271,2688.475
458.117919922,2621.05
458.408081055,2557.825
458.698303223,2712.45
458.988433838,2649.95
459.278564453,2509.6
459.568725586,2753.675
459.858825684,2845.7
460.148864746,2572.475
460.438995361,2535.2
460.729034424,2582.225
461.019042969,2578.275
461.309082031,2761.525
461.599060059,2657.6
461.889007568,2272.5
462.179016113,2108.8
462.468933105,2315.65
462.75881958,2402.9
463.048736572,2185.575
463.338592529,2418.175
463.628448486,2730.7
463.918365479,2461.85
464.2081604,2617.1
464.497924805,2601.2
464.787780762,2681.9
465.077514648,2972.825
465.367218018,2634.4
465.657012939,2805.075
465.946685791,3163.975
466.236358643,2820.65
466.526092529,2345.975
466.815734863,2346.925
467.105316162,2282.025
467.394927979,2304.0
467.684570312,2188.375
467.974121094,2255.475
468.263671875,2346.275
468.553222656,2164.325
468.842773438,2068.5
469.132232666,1986.3
469.42175293,1994.075
469.711212158,1970.425
470.000640869,1866.4
470.290100098,1919.275
470.579498291,1964.475
470.868835449,1942.6
471.158294678,1921.25
471.447601318,1893.925
471.736907959,1958.6
472.026275635,2019.725
472.315551758,2003.7
472.604797363,1998.05
472.894104004,2112.1
473.183319092,2207.5
473.47253418,2197.475
473.761779785,2192.025
474.05090332,2136.4
474.340087891,2088.55
474.629241943,2034.625
474.918365479,2179.4
475.207427979,2409.675
475.496551514,2433.725
475.785614014,2216.6
476.074645996,2042.625
476.363708496,2123.2
476.652679443,2248.5
476.941650391,2081.7
477.230682373,1937.65
477.519622803,1946.875
477.808502197,2078.1
478.097412109,2306.05
478.386352539,2272.425
478.675201416,2033.775
478.964050293,1933.4
479.25289917,2115.325
479.541717529,2160.65
479.830474854,2014.525
480.11932373,2328.725
480.408050537,2482.85
480.696777344,2139.925
480.985534668,2033.0
481.274200439,2111.7
481.562866211,2329.025
481.851593018,2348.5
482.140197754,2286.95
482.428833008,2145.5
482.717468262,1969.975
483.006011963,1999.8
483.294586182,2119.025
483.5831604,2141.1
483.871673584,2022.725
484.16015625,2145.35
484.448699951,2365.15
484.7371521,2379.1
485.02557373,2388.475
485.314025879,2154.0
485.602416992,3355.05
485.890777588,11875.975
486.179199219,10599.225
486.467559814,2821.45
486.755859375,2057.5
487.044219971,2411.4
487.332519531,2570.175
487.620758057,2213.85
487.908966064,1974.4
488.197265625,1798.15
488.485473633,1714.95
488.773651123,1820.975
489.061859131,1807.875
489.350006104,1760.45
489.638122559,1709.575
489.926300049,1739.725
490.214355469,1684.575
490.502441406,1628.375
490.790527344,1582.2
491.078552246,1747.525
491.366546631,1745.825
491.654602051,1529.1
491.942565918,1614.55
492.230499268,1642.15
492.518493652,1613.775
492.806396484,1645.2
493.094268799,1559.675
493.382202148,1599.125
493.670074463,1700.225
493.957885742,1556.1
494.245727539,1566.3
494.533508301,1707.875
494.821289062,1600.6
495.109100342,1470.225
495.396850586,1432.025
495.684539795,1383.0
495.972290039,1576.45
496.25994873,1878.1
496.547607422,1880.175
496.835296631,1718.65
497.122894287,1434.525
497.410522461,1372.9
497.6980896,1370.35
497.985687256,1336.7
498.273223877,1420.225
498.560760498,1491.175
498.848266602,1510.775
499.135772705,1486.85
499.423217773,1525.675
499.710693359,1623.15
499.998138428,1550.875
500.285522461,1407.625
500.572937012,1358.075
500.860290527,1392.45
501.147644043,1488.1
501.434997559,1679.375
501.722290039,1564.3
502.00958252,1351.65
502.296875,1589.525
502.584106445,1571.625
502.871337891,1410.525
503.158599854,1475.25
503.445770264,1550.825
503.732910156,1530.575
504.020141602,1375.15
504.307220459,1350.075
504.594329834,1378.275
504.881469727,1318.075
505.168518066,1392.425
505.455535889,1445.575
505.742614746,1338.05
506.029632568,1291.675
506.316589355,1436.725
506.603637695,1511.45
506.890563965,1347.075
507.177459717,1204.975
507.464385986,1127.075
507.751312256,1330.85
508.038146973,1391.9
508.325012207,1277.05
508.611877441,1330.5
508.898681641,1326.675
509.185424805,1209.875
509.472259521,1161.625
509.759002686,1232.9
510.045715332,1258.25
510.332458496,1210.25
510.619140625,1253.0
510.905761719,1188.9
511.192504883,1179.975
511.479095459,1209.6
511.765686035,1183.05
512.052307129,1111.025
512.338928223,1054.85
512.625427246,1114.45
512.91204834,1156.85
513.198486328,1131.95
513.484985352,1113.8
513.77142334,1039.525
514.057922363,1089.275
514.344299316,1078.775
514.63079834,1053.475
514.917175293,1033.35
515.203552246,963.175
515.489868164,936.675
515.776245117,1042.925
516.0625,1076.625
516.348815918,1000.025
516.635070801,1033.875
516.921325684,1070.7
517.207580566,1016.0
517.493774414,945.725
517.779968262,949.7
518.066101074,986.0
518.352294922,944.15
518.638366699,953.65
518.924499512,1012.75
519.210632324,1073.425
519.496643066,1054.25
519.782714844,961.4
520.068786621,935.425
520.354736328,896.675
520.640686035,868.175
520.926757812,902.7
521.212646484,975.975
521.498535156,975.9
521.784484863,925.45
522.0703125,870.625
522.356262207,888.05
522.642089844,954.7
522.927856445,953.25
523.213684082,951.275
523.499511719,932.175
523.78527832,966.6
524.070983887,1017.2
524.356750488,997.15
524.64239502,966.125
524.928039551,953.9
525.213806152,971.95
525.499389648,967.525
525.784973145,985.75
526.070617676,1008.5
526.356140137,992.55
526.641723633,1002.875
526.927307129,1050.075
527.212768555,1058.275
527.498291016,1044.75
527.783752441,1040.775
528.069213867,1019.65
528.354675293,1037.75
528.640014648,1174.15
528.925476074,1237.8
529.21081543,1175.525
529.496154785,1150.875
529.781555176,1126.725
530.066833496,1131.2
530.352050781,1144.025
530.637390137,1151.975
530.922607422,1142.675
531.207824707,1138.8
531.493041992,1126.45
531.778198242,1188.45
532.063354492,1163.8
532.348571777,1116.9
532.633666992,1137.025
532.918762207,1204.775
533.203857422,1276.875
533.488891602,1308.775
533.773925781,1260.375
534.059020996,1228.85
534.343933105,1260.075
534.628967285,1234.8
534.91394043,1250.175
535.198852539,1267.15
535.483703613,1245.075
535.768676758,1186.375
536.053527832,1206.375
536.338317871,1166.225
536.62322998,1114.0
536.90802002,1084.5
537.192810059,1102.775
537.477539062,1173.775
537.762329102,1211.875
538.047058105,1238.375
538.331726074,1272.0
538.616455078,1257.6
538.901123047,1229.675
539.18572998,1279.875
539.470397949,1277.975
539.755004883,1284.3
540.039550781,1243.55
540.32409668,1203.675
540.608703613,1234.65
540.893188477,1321.225
541.17767334,1344.575
541.462158203,1341.825
541.746643066,1286.775
542.031066895,1333.55
542.315429688,1365.325
542.59979248,1366.2
542.884216309,1344.675
543.168579102,1352.075
543.452941895,1352.0
543.737243652,1400.875
544.021484375,1450.525
544.305725098,1435.6
544.590026855,1402.225
544.874267578,1423.375
545.158447266,1481.3
545.442626953,1412.875
545.726806641,1320.425
546.010925293,1348.725
546.29510498,1374.925
546.579162598,1365.4
546.863220215,1399.55
547.147277832,1461.275
547.431335449,1527.25
547.715332031,1587.625
547.999328613,1679.4
548.283325195,1691.225
548.567260742,1556.85
548.851135254,1542.425
549.135070801,1510.625
549.419006348,1422.75
549.702819824,1515.75
549.986755371,1567.55
550.270507812,1547.55
550.554321289,1585.7
550.83807373,1590.2
551.121826172,1551.3
551.405517578,1568.95
551.689331055,1678.6
551.973022461,1868.55
552.256652832,1910.475
552.540344238,1848.5
552.823974609,1820.625
553.107543945,1804.725
553.391174316,1861.1
553.674743652,1904.55
553.958251953,1906.825
554.241821289,1921.075
554.525268555,1851.425
554.808776855,1852.325
555.092285156,2034.975
555.375671387,2096.8
555.659057617,2097.35
555.942504883,2121.725
556.225891113,2145.225
556.509216309,2125.7
556.792541504,2042.75
557.075866699,2100.55
557.359130859,2127.3
557.64239502,2127.6
557.92565918,2196.5
558.208862305,2177.1
558.49206543,2133.525
558.77532959,2135.25
559.058410645,2192.075
559.341552734,2182.1
559.624694824,2219.7
559.907775879,2284.175
560.190856934,2389.6
560.473937988,2381.775
560.756896973,2406.425
561.039978027,2448.6
561.322937012,2406.3
561.605895996,2391.125
561.88885498,2366.075
562.171813965,2364.95
562.454650879,2354.625
562.737548828,2395.35
563.020446777,2436.775
563.303283691,2475.675
563.58605957,2487.7
563.868896484,2507.85
564.151672363,2556.35
564.434387207,2577.3
564.717163086,2551.275
564.99987793,2595.7
565.282531738,2645.575
565.565185547,2579.825
565.847839355,2600.9
566.130432129,2697.4
566.413085938,2680.75
566.695678711,2696.425
566.978149414,2788.85
567.260681152,2902.0
567.543273926,2977.525
567.825744629,2893.25
568.108154297,2914.025
568.390686035,3021.2
568.673095703,3128.15
568.955505371,3165.475
569.237854004,3192.575
569.520202637,3442.9
569.802490234,3606.15
570.084838867,3593.075
570.367126465,3454.825
570.649414062,3456.05
570.93170166,3776.075
571.213928223,3835.1
571.496154785,3628.575
571.778381348,3810.5
572.06048584,4038.45
572.342590332,3630.225
572.624755859,3341.325
572.906860352,3383.025
573.188903809,3984.7
573.470947266,4190.4
573.752990723,3987.85
574.03503418,4066.4
574.317016602,4413.275
574.598937988,4220.875
574.88092041,4131.85
575.162841797,4260.05
575.444763184,3961.925
575.726623535,3723.45
576.008483887,3757.175
576.290344238,4104.2
576.572143555,4277.475
576.853881836,4313.05
577.135681152,4252.7
577.417419434,4286.225
577.699157715,5037.875
577.980895996,5179.475
578.262573242,4628.45
578.544128418,4219.1
578.825866699,4141.275
579.107421875,3878.175
579.388977051,4011.975
579.670593262,4375.425
579.952148438,4223.325
580.233642578,4301.8
580.515197754,4413.725
580.796691895,4154.175
581.078125,4296.55
581.359619141,5612.275
581.640991211,5677.0
581.922363281,4878.15
582.203796387,4979.925
582.485107422,4625.025
582.766418457,4300.575
583.047790527,4151.075
583.329040527,4062.75
583.610290527,3956.1
583.891540527,4048.625
584.172790527,4310.325
584.453918457,4335.975
584.735107422,4393.475
585.016235352,4768.1
585.297363281,4733.075
585.578552246,4578.275
585.859619141,4505.6
586.140625,4307.95
586.421630859,4188.875
586.702697754,4243.5
586.983642578,4434.55
587.264648438,4568.45
587.545654297,4526.3
587.826477051,4474.625
588.107421875,4297.3
588.388305664,4344.6
588.669189453,4431.175
588.950012207,4295.075
589.230834961,4210.15
589.511657715,4287.325
589.792358398,4352.875
590.073120117,4376.55
590.353881836,4340.825
590.63458252,4366.625
590.915283203,4327.65
591.195922852,4320.325
591.4765625,4354.1
591.757202148,4400.4
592.037780762,4390.8
592.31829834,4379.625
592.598937988,4571.45
592.879394531,4706.7
593.159912109,4640.7
593.440429688,4573.625
593.720825195,4566.6
594.001281738,4536.025
594.281677246,4468.7
594.562072754,4492.3
594.842407227,4578.25
595.122802734,4604.725
595.403137207,4586.5
595.683410645,4565.25
595.963623047,4565.85
596.243896484,4551.35
596.524169922,4516.85
596.804382324,4531.1
597.084533691,4576.8
597.364746094,4600.85
597.644836426,4616.675
597.924987793,4592.4
598.205078125,4574.375
598.485107422,4583.575
598.765197754,4698.0
599.045227051,4754.5
599.325195312,4669.325
599.605224609,4631.525
599.885192871,4672.9
600.165100098,4705.225
600.445007324,4675.025
600.724914551,4670.2
601.004760742,4677.375
601.284667969,4710.725
601.56451416,4667.75
601.844238281,4681.4
602.124084473,4696.975
602.403808594,4681.65
602.683532715,4722.2
602.963256836,4697.9
603.242919922,4749.0
603.522583008,4764.25
603.802246094,4761.575
604.081848145,4712.95
604.36138916,4720.575
604.641052246,4728.4
604.920532227,4693.05
605.200073242,4740.275
605.479614258,4764.6
605.759094238,4823.875
606.038574219,4778.55
606.317932129,4725.5
606.597412109,4737.75
606.87677002,4763.55
607.15612793,4801.75
607.435546875,4788.6
607.714782715,4798.9
607.99407959,4761.725
608.273376465,4750.8
608.552612305,4771.7
608.831848145,4795.95
609.111083984,4799.225
609.390258789,4770.45
609.669433594,4768.9
609.948608398,4829.975
610.227722168,4813.0
610.506713867,4766.225
610.785888672,4779.275
611.064880371,4781.9
611.34387207,4797.7
611.622924805,4801.35
611.901916504,4791.475
612.180847168,4754.675
612.459777832,4770.65
612.738647461,4768.075
613.01751709,4744.3
613.296447754,4690.0
613.575317383,4661.6
613.854064941,4625.85
614.132873535,4550.725
614.411621094,4509.8
614.690368652,4485.95
614.969177246,4426.775
615.247802734,4353.375
615.526489258,4342.85
615.805175781,4255.2
616.08380127,4133.3
616.362365723,4078.95
616.640991211,4036.325
616.919555664,4001.0
617.198059082,4098.9
617.4765625,4328.125
617.755126953,4449.775
618.033569336,4488.275
618.311950684,4460.675
618.590454102,4480.2
618.868774414,4437.35
619.147155762,4460.825
619.425598145,4453.3
619.703857422,4464.075
619.982177734,4472.8
620.260498047,4474.525
620.538757324,4455.95
620.816955566,4424.45
621.095214844,4384.2
621.373413086,4380.075
621.651550293,4454.7
621.929748535,4477.025
622.207824707,4453.675
622.485900879,4482.9
622.764038086,4463.275
623.042053223,4507.6
623.320007324,4526.2
623.598083496,4519.35
623.876037598,4503.775
624.153991699,4511.175
624.432006836,4525.35
624.709838867,4543.075
624.987731934,4533.575
625.265563965,4544.35
625.543395996,4535.95
625.821228027,4600.375
626.098999023,4583.925
626.376831055,4613.025
626.654541016,4639.175
626.932250977,4673.0
627.209960938,4715.775
627.487670898,4729.775
627.765319824,4751.7
628.04296875,4758.575
628.320495605,4763.15
628.598083496,4738.8
628.875671387,4789.65
629.153259277,4817.725
629.430725098,4856.2
629.708251953,4843.975
629.985656738,4851.825
630.263122559,4872.475
630.540588379,4917.9
630.817932129,4908.35
631.095275879,4962.3
631.372680664,4984.5
631.649963379,5020.675
631.927246094,5054.05
632.204589844,5100.225
632.481811523,5136.125
632.759033203,5197.65
633.036254883,5202.375
633.313415527,5283.9
633.590576172,5304.05
633.867736816,5406.5
634.144836426,5473.7
634.421875,5488.125
634.698913574,5568.95
634.976013184,5603.675
635.252990723,5671.975
635.529968262,5680.75
635.807006836,5741.025
636.08392334,5715.4
636.360839844,5649.875
636.637756348,5574.075
636.914611816,5522.775
637.191467285,5496.875
637.468261719,5567.45
637.745056152,5530.325
638.021789551,5541.8
638.298583984,5557.625
638.575317383,5590.85
638.851989746,5595.1
639.12878418,5612.45
639.405395508,5596.375
639.682006836,5627.0
639.958618164,5638.575
640.235229492,5580.5
640.511779785,5611.125
640.788330078,5612.75
641.064880371,5595.425
641.341308594,5582.05
641.617797852,5597.0
641.894226074,5567.8
642.170654297,5597.475
642.44708252,5612.625
642.723388672,5587.3
642.999755859,5586.475
643.276123047,5587.4
643.552429199,5571.475
643.828674316,5566.55
644.104919434,5537.025
644.381164551,5518.125
644.657348633,5531.725
644.933532715,5517.15
645.209716797,5506.975
645.485839844,5524.625
645.761901855,5503.6
646.038024902,5473.475
646.314086914,5522.625
646.590087891,5477.625
646.866149902,5510.475
647.142150879,5463.125
647.41809082,5428.925
647.694030762,5437.9
647.969970703,5416.625
648.245788574,5437.575
648.521728516,5411.975
648.797546387,5407.45
649.073303223,5410.45
649.349182129,5380.375
649.624938965,5375.525
649.900634766,5379.375
650.176391602,5358.225
650.452087402,5337.95
650.727783203,5376.425
651.003479004,5352.375
651.279052734,5363.95
651.554626465,5314.0
651.83026123,5313.05
652.105773926,5336.55
652.381286621,5299.7
652.656860352,5282.775
652.932312012,5296.2
653.207763672,5289.05
653.483215332,5323.15
653.758605957,5299.825
654.033935547,5312.5
654.309326172,5308.8
654.584716797,5326.475
654.859985352,5290.225
655.135253906,5305.875
655.410583496,5326.05
655.685791016,6130.025
655.9609375,9565.075
656.236206055,9339.0
656.511291504,6173.575
656.786437988,5403.6
657.061645508,5304.0
657.336669922,5283.8
657.611694336,5327.675
657.886779785,5325.825
658.161804199,5341.8
658.436828613,5304.1
658.711791992,5308.675
658.986755371,5309.05
659.261657715,5305.6
659.536621094,5323.375
659.811401367,5315.975
660.086303711,5320.95
660.36114502,5294.25
660.635864258,5311.0
660.910644531,5326.875
661.185424805,5302.725
661.460205078,5330.975
661.734863281,5319.0
662.009521484,5308.2
662.284179688,5318.1
662.558776855,5328.65
662.833435059,5349.375
663.108032227,5346.2
663.382568359,5331.325
663.657043457,5340.025
663.93157959,5367.875
664.206054688,5329.6
664.48046875,5362.275
664.755004883,5371.9
665.02935791,5378.55
665.303710938,5362.85
665.578125,5397.15
665.852416992,5387.875
666.126708984,5370.05
666.401062012,5381.625
666.675292969,5406.925
666.949462891,5388.075
667.223754883,5384.175
667.497924805,5412.075
667.772094727,5413.675
668.046264648,5363.175
668.3203125,5425.125
668.594421387,5427.45
668.868469238,5416.025
669.14251709,5416.75
669.416503906,5414.475
669.690551758,5433.2
669.964477539,5431.625
670.23840332,5440.125
670.512329102,5395.9
670.786254883,5394.025
671.060058594,5433.65
671.333984375,5441.875
671.607788086,5421.85
671.881530762,5428.375
672.155334473,5445.25
672.429077148,5441.425
672.702758789,5462.85
672.97644043,5430.175
673.25012207,5419.45
673.523742676,5398.0
673.797302246,5425.8
674.070922852,5462.45
674.344482422,5442.95
674.618041992,5444.475
674.891601562,5432.45
675.165100098,5418.525
675.438476562,5401.075
675.711975098,5426.825
675.985412598,5398.925
676.258789062,5378.25
676.532165527,5425.15
676.805480957,5387.65
677.078796387,5380.575
677.352111816,5419.475
677.625366211,5377.375
677.898620605,5364.975
678.171875,5393.125
678.445007324,5365.975
678.718200684,5405.225
678.991394043,5379.725
679.264404297,5376.825
679.537536621,5377.8
679.81060791,5377.175
680.083679199,5366.95
680.356689453,5348.7
680.629699707,5353.525
680.902648926,5343.5
681.175598145,5392.275
681.448547363,5377.6
681.721435547,5344.425
681.99420166,5349.0
682.267150879,5325.725
682.539916992,5364.575
682.812744141,5329.425
683.085510254,5324.225
683.358215332,5323.975
683.63092041,5299.075
683.903625488,5298.05
684.176330566,5269.4
684.448913574,5230.6
684.721557617,5237.0
684.99420166,5285.6
685.266662598,5276.05
685.539245605,5282.125
685.811767578,5294.45
686.084289551,5282.475
686.356689453,5300.15
686.629150391,5292.8
686.901550293,5299.6
687.17401123,5276.125
687.446350098,5301.825
687.718688965,5312.375
687.990966797,5337.725
688.263305664,5304.325
688.535522461,5278.7
688.807739258,5261.475
689.079956055,5301.0
689.352172852,5299.55
689.624328613,5294.3
689.896484375,5294.925
690.168518066,5263.525
690.440612793,5287.675
690.71270752,5295.05
690.984741211,5304.9
691.256713867,5282.85
691.528747559,5298.775
691.800720215,5281.65
692.072631836,5284.175
692.344543457,5290.725
692.616394043,5285.35
692.888244629,5284.125
693.160095215,5285.625
693.431945801,5302.525
693.703674316,5266.875
693.975463867,5273.2
694.247131348,5283.85
694.518859863,5262.325
694.790588379,5262.6
695.062255859,5275.675
695.33380127,5232.05
695.60546875,5243.475
695.87701416,5235.675
696.148498535,5250.075
696.42010498,5270.775
696.691589355,5259.975
696.96307373,5274.125
697.234558105,5283.175
697.50592041,5250.875
697.777282715,5248.2
698.048706055,5253.175
698.320068359,5270.05
698.591308594,5233.85
698.862670898,5213.6
699.133972168,5268.95
699.405151367,5238.975
699.676391602,5249.65
699.947570801,5243.225
700.21875,5229.825
700.489868164,5242.3
700.761047363,5212.6
701.032104492,5246.125
701.303100586,5199.425
701.57421875,5238.175
701.845214844,5209.45
702.116149902,5238.575
702.387207031,5216.4
702.65814209,5205.7
702.928955078,5209.8
703.199951172,5177.45
703.47076416,5167.75
703.741577148,5156.725
704.012451172,5171.55
704.28314209,5175.175
704.553955078,5146.15
704.824707031,5186.525
705.095397949,5186.75
705.366027832,5169.825
705.63671875,5155.65
705.907348633,5156.525
706.17791748,5158.35
706.448486328,5153.4
706.719055176,5174.725
706.989562988,5149.25
707.260131836,5164.625
707.530517578,5172.375
707.800964355,5156.675
708.071411133,5142.0
708.341796875,5129.225
708.612182617,5128.95
708.882446289,5109.375
709.152893066,5110.5
709.423156738,5101.85
709.693359375,5077.775
709.963623047,5090.85
710.233825684,5088.725
710.503967285,5041.925
710.774169922,5066.625
711.044311523,5059.125
711.31439209,5042.575
711.584533691,5069.425
711.854553223,5054.025
712.124572754,5057.075
712.39465332,5013.6
712.664611816,5036.65
712.934509277,5055.6
713.204467773,5041.875
713.474365234,5039.15
713.74420166,5002.075
714.014099121,5007.475
714.283874512,4988.65
714.553710938,5017.825
714.823486328,5016.575
715.093200684,5007.125
715.362915039,4985.95
715.632629395,4981.1
715.902282715,4940.95
716.171875,4934.625
716.441589355,4930.7
716.711181641,4901.925
716.980712891,4928.0
717.250244141,4923.5
717.519775391,4920.5
717.78918457,4908.45
718.058654785,4969.3
718.328125,4946.575
718.597473145,4916.025
718.866882324,4904.525
719.136230469,4907.775
719.405578613,4918.6
719.674865723,4936.125
719.944152832,4921.9
720.213439941,4892.0
720.48260498,4911.7
720.75177002,4900.9
721.020996094,4891.925
721.290100098,4888.275
721.559204102,4865.725
721.828308105,4887.675
722.097351074,4869.525
722.366455078,4851.7
722.635437012,4845.725
722.904418945,4823.025
723.173400879,4836.75
723.442321777,4839.675
723.711181641,4829.65
723.980102539,4824.65
724.248962402,4829.275
724.51776123,4818.525
724.786560059,4825.325
725.055358887,4814.9
725.324035645,4796.525
725.592834473,4799.3
725.86151123,4782.775
726.130187988,4778.6
726.398803711,4782.975
726.667419434,4775.0
726.935974121,4750.875
727.204528809,4732.975
727.473083496,4734.025
727.741638184,4710.0
728.010070801,4699.5
728.278564453,4703.075
728.546936035,4721.85
728.815368652,4648.15
729.08380127,4607.75
729.352111816,4602.55
729.620361328,4547.225
729.88873291,4564.55
730.156982422,4590.0
730.425231934,4585.725
730.693481445,4592.175
730.961669922,4608.575
731.229797363,4616.4
731.49798584,4629.125
731.766113281,4676.525
732.034118652,4695.025
732.302246094,4720.875
732.570251465,4721.375
732.838256836,4741.925
733.106262207,4801.45
733.374145508,4815.875
733.642089844,4816.875
733.909973145,4853.475
734.177856445,4887.9
734.445678711,4933.75
734.713562012,4985.5
734.981323242,4988.175
735.249084473,5007.35
735.516845703,5101.975
735.784545898,5119.25
736.052185059,5127.6
736.319885254,5201.2
736.587524414,5231.575
736.855102539,5234.875
737.122619629,5308.925
737.390197754,5304.1
737.657714844,5372.45
737.925170898,5396.275
738.192749023,5467.65
738.460144043,5476.25
738.727539062,5516.55
738.994995117,5552.725
739.262329102,5600.75
739.529663086,5657.0
739.79699707,5679.575
740.06427002,5700.825
740.331481934,5757.625
740.598754883,5755.275
740.865905762,5789.725
741.133056641,5873.95
741.40032959,5870.675
741.667358398,5909.725
741.934448242,5937.8
742.201599121,5976.775
742.468566895,6023.475
742.735534668,6039.175
743.002563477,6058.775
743.26953125,6047.825
743.536437988,6095.875
743.803405762,6127.4
744.0703125,6099.55
744.337097168,6160.35
744.604003906,6147.625
744.870727539,6179.825
745.137512207,6189.65
745.40423584,6211.7
745.670959473,6184.9
745.93762207,6211.825
746.204284668,6212.325
746.470947266,6235.75
746.737548828,6239.5
747.004089355,6248.825
747.270751953,6262.7
747.53717041,6271.7
747.803710938,6243.0
748.070251465,6243.35
748.336608887,6232.65
748.603027344,6195.525
748.869445801,6215.7
749.135803223,6217.75
749.402099609,6238.25
749.668457031,6226.575
749.934753418,6211.375
750.20098877,6210.125
750.467224121,6247.375
750.733459473,6211.975
750.999572754,6213.7
751.26574707,6150.975
751.531860352,6180.175
751.797912598,6156.675
752.064025879,6121.325
752.330078125,6134.75
752.596069336,6138.925
752.862060547,6129.7
753.127990723,6112.95
753.393920898,6112.0
753.659912109,6099.575
753.925720215,6122.55
754.19152832,6095.25
754.457397461,6060.925
754.723144531,6045.4
754.988952637,6039.85
755.254699707,6054.325
755.520385742,6049.225
755.786071777,6051.175
756.051696777,6032.525
756.317382812,6003.5
756.582946777,6026.9
756.848510742,6025.925
757.114074707,5977.25
757.379577637,5989.75
757.645080566,6040.325
757.910583496,6019.4
758.175964355,5971.775
758.441345215,5973.95
758.706848145,5910.925
758.972106934,5914.95
759.237426758,5937.925
759.502807617,5943.325
759.768005371,5939.4
760.03326416,5914.35
760.298522949,5904.35
760.563659668,5891.5
760.828857422,5906.3
761.093994141,5917.05
761.359130859,5869.875
761.624206543,5878.775
761.889282227,5843.15
762.15423584,5847.275
762.419250488,5841.175
762.684265137,5817.9
762.949157715,5831.95
763.214050293,5818.3
763.479003906,5824.5
763.743835449,5828.85
764.008666992,5793.075
764.2734375,5796.825
764.538208008,5834.525
764.802978516,5860.425
765.067687988,5850.575
765.332397461,5847.0
765.597045898,5804.95
765.861694336,5794.675
766.126342773,5779.925
766.390930176,5776.3
766.655395508,5755.35
766.920043945,5761.6
767.184509277,5754.575
767.448974609,5776.875
767.713439941,5771.45
767.977783203,5731.55
768.2421875,5761.25
768.506591797,5743.35
768.770874023,5809.125
769.03515625,5765.175
769.299499512,5778.5
769.563720703,5794.4
769.827941895,5752.625
770.092163086,5740.025
770.356323242,5754.525
770.620483398,5778.65
770.88458252,5767.55
771.148681641,5800.325
771.412719727,5797.225
771.676757812,5794.05
771.940734863,5768.275
772.204711914,5757.75
772.468688965,5761.625
772.73260498,5764.975
772.996459961,5762.275
773.260314941,5134.075
773.524169922,700.6
773.787963867,140.725
774.051696777,123.075
774.315551758,119.7
774.579223633,121.775
774.842895508,120.975
775.106567383,123.55
775.370239258,117.975
775.633789062,122.7
775.897399902,126.175
776.160949707,117.425
776.424499512,120.075
776.687988281,125.175
776.951477051,129.6
777.214904785,119.475
777.47833252,121.45
