191.299911499,99.175
191.603515625,103.775
191.907119751,99.325
192.210693359,104.9
192.514251709,99.875
192.817810059,104.0
193.121368408,103.625
193.42489624,103.875
193.728408813,98.1
194.031936646,96.925
194.33543396,93.9
194.638916016,109.5
194.94241333,96.275
195.245880127,99.125
195.549331665,95.225
195.852767944,100.825
196.156204224,190.5
196.459625244,185.15
196.763015747,185.875
197.066436768,195.875
197.369812012,186.0
197.673187256,187.975
197.9765625,185.05
198.279922485,189.7
198.583251953,180.775
198.886581421,186.625
199.18989563,189.6
199.493209839,191.875
199.79649353,178.675
200.09979248,192.1
200.403076172,185.1
200.706314087,190.0
201.009567261,191.125
201.312820435,189.55
201.616027832,178.3
201.919235229,174.425
202.222457886,179.875
202.525634766,181.85
202.828826904,178.775
203.132003784,176.725
203.435150146,180.45
203.738296509,177.575
204.041412354,177.3
204.344558716,182.4
204.647659302,181.475
204.950759888,182.2
205.253845215,180.45
205.556930542,179.875
205.859985352,179.8
206.163024902,181.15
206.466079712,182.15
206.769104004,191.5
207.072113037,181.625
207.375137329,178.875
207.678131104,179.625
207.981109619,188.5
208.284088135,183.75
208.587036133,188.45
208.889984131,187.075
209.19291687,189.7
209.495849609,185.15
209.798751831,190.05
210.101654053,189.9
210.404556274,192.65
210.707427979,186.675
211.010269165,197.4
211.31312561,192.8
211.615982056,193.05
211.918807983,194.35
212.221618652,196.4
212.524429321,186.9
212.827224731,199.5
213.130004883,197.675
213.432769775,193.9
213.735534668,192.525
214.038269043,197.675
214.341003418,198.125
214.643737793,200.425
214.946456909,206.475
215.249145508,205.425
215.551834106,208.875
215.854507446,205.9
216.157165527,203.2
216.45980835,211.275
216.762451172,211.55
217.065078735,214.55
217.36769104,215.475
217.670303345,220.95
217.972885132,222.55
218.275466919,225.025
218.578048706,215.85
218.880599976,230.25
219.183120728,226.15
219.485656738,231.55
219.788192749,244.825
220.090682983,257.95
220.393188477,277.925
220.695663452,312.5
220.998138428,330.425
221.300582886,374.0
221.603042603,408.65
221.905487061,457.8
222.207901001,513.3
222.510299683,584.175
222.812728882,668.425
223.115097046,760.75
223.41746521,834.4
223.719848633,926.25
224.022171021,1004.9
224.324508667,1106.6
224.626846313,1232.05
224.929168701,1324.9
225.231460571,1447.45
225.533737183,1533.15
225.836013794,1659.525
226.138290405,1770.2
226.440536499,1877.675
226.742767334,1973.7
227.044998169,2068.675
227.347213745,2178.675
227.649429321,2269.225
227.951629639,2322.575
228.253799438,2405.6
228.555953979,2494.425
228.858123779,2553.85
229.160263062,2611.125
229.462371826,2673.575
229.764511108,2734.85
230.066619873,2807.525
230.36869812,2850.375
230.670776367,2895.15
230.972854614,2973.95
231.274902344,3050.8
231.576950073,3122.35
231.878967285,3151.9
232.180999756,3239.95
232.48298645,3315.975
232.784988403,3367.25
233.086975098,3442.175
233.388946533,3499.025
233.69090271,3562.175
233.992858887,3640.95
234.294769287,3670.425
234.596694946,3725.95
234.898605347,3823.725
235.200500488,3836.85
235.502380371,3899.325
235.804244995,3919.425
236.106109619,3949.1
236.407958984,4009.55
236.709777832,4056.4
237.011581421,4077.1
237.313400269,4073.2
237.615203857,4111.475
237.916976929,4156.275
238.21875,4169.15
238.520507812,4208.6
238.822250366,4248.95
239.12399292,4284.975
239.425704956,4304.15
239.727401733,4286.225
240.02911377,4331.85
240.330780029,4326.175
240.632446289,4379.425
240.93409729,4398.8
241.23576355,4431.025
241.537384033,4465.975
241.839004517,4504.225
242.140594482,4507.125
242.442199707,4586.4
242.743774414,4617.55
243.045333862,4627.275
243.346923828,4664.925
243.648452759,4706.25
243.949966431,4724.4
244.251495361,4778.525
244.552993774,4818.975
244.854492188,4794.05
245.155975342,4815.725
245.457443237,4864.775
245.758880615,4870.025
246.060333252,4874.55
246.36177063,4886.075
246.66317749,4888.475
246.964569092,4905.725
247.265945435,4918.75
247.567337036,4913.8
247.86869812,4977.75
248.170059204,4980.9
248.471389771,5012.975
248.772705078,5055.65
249.074035645,5090.625
249.375335693,5117.625
249.676620483,5176.75
249.977890015,5215.825
250.279159546,5293.05
250.58039856,5370.825
250.881637573,5427.25
251.182876587,5497.325
251.484069824,5570.5
251.785263062,5641.45
252.086456299,5771.05
252.387619019,5801.075
252.688781738,5875.875
252.989929199,5957.7
253.291061401,6046.5
253.592178345,6150.175
253.893280029,6210.925
254.194366455,6282.525
254.49546814,6302.225
254.796524048,6353.6
255.097579956,6427.775
255.398620605,6428.5
255.699645996,6504.175
256.000640869,6511.3
256.30166626,6541.4
256.602661133,6622.75
256.903656006,6588.325
257.204589844,6596.825
257.505523682,6590.425
257.80645752,6615.375
258.107391357,6589.725
258.408294678,6546.3
258.709228516,6527.175
259.010070801,6472.075
259.310943604,6468.575
259.611846924,6423.15
259.912658691,6354.425
260.213500977,6296.75
260.514343262,6244.125
260.815124512,6178.625
261.115936279,6138.9
261.416717529,6102.125
261.717468262,6084.55
262.018218994,6025.225
262.318969727,6007.675
262.619689941,6020.225
262.920410156,6060.65
263.221130371,6080.275
263.521789551,6079.825
263.822479248,6124.775
264.123138428,6157.025
264.42376709,6165.2
264.72442627,6140.2
265.025054932,6125.275
265.325622559,6144.8
265.626251221,6124.6
265.926818848,6066.225
266.227386475,6002.325
266.527954102,5945.25
266.828460693,5958.875
267.12902832,5844.425
267.429534912,5801.15
267.730010986,5753.4
268.030517578,5700.55
268.330993652,5624.475
268.631439209,5547.375
268.931915283,5540.1
269.232299805,5500.375
269.532745361,5454.275
269.8331604,5413.55
270.133544922,5381.25
270.433929443,5347.025
270.734313965,5328.8
271.034637451,5316.325
271.334991455,5283.375
271.635314941,5289.2
271.935638428,5299.8
272.235931396,5310.75
272.536254883,5348.0
272.836486816,5381.475
273.136749268,5407.65
273.437011719,5528.65
273.737213135,5571.45
274.037445068,5649.95
274.337677002,5698.875
274.6378479,5772.425
274.938049316,5880.875
275.238220215,5962.225
275.538360596,6052.4
275.838500977,6112.6
276.138641357,6233.75
276.438751221,6290.15
276.738830566,6355.075
277.03894043,6377.75
277.338989258,6497.15
277.639038086,6554.725
277.939056396,6591.55
278.239105225,6619.6
278.539093018,6707.925
278.839141846,6725.675
279.139129639,6786.75
279.439086914,6825.125
279.739044189,6917.95
280.039001465,6946.4
280.338928223,6967.225
280.63885498,7005.4
280.938781738,7044.875
281.238647461,7038.075
281.538513184,7042.425
281.838409424,7080.55
282.138244629,7122.525
282.438079834,7104.075
282.737945557,7125.075
283.037719727,7117.35
283.337524414,7141.025
283.637298584,7172.5
283.937072754,7141.35
284.236816406,7154.95
284.536560059,7141.2
284.836303711,7144.3
285.136016846,7181.35
285.43572998,7164.675
285.735412598,7144.6
286.035064697,7177.85
286.334747314,7187.925
286.634368896,7183.8
286.933990479,7125.15
287.233642578,7081.45
287.533203125,7051.275
287.832824707,6996.1
288.132385254,6897.525
288.431945801,6782.425
288.731506348,6684.1
289.031036377,6518.6
289.330566406,6404.275
289.630065918,6393.025
289.92956543,6366.1
290.229034424,6455.075
290.528503418,6564.95
290.827941895,6723.075
291.127380371,6830.05
291.42678833,6945.55
291.726226807,7042.9
292.025604248,7068.875
292.324981689,7091.85
292.624359131,7103.95
292.923736572,7119.3
293.223052979,7130.15
293.522369385,7109.05
293.821685791,7089.675
294.12097168,7078.875
294.420257568,7037.35
294.719543457,6977.525
295.018768311,6999.1
295.318023682,6947.7
295.617248535,6868.225
295.916442871,6840.8
296.215667725,6775.825
296.514862061,6639.1
296.813995361,6445.6
297.11315918,6282.725
297.412322998,6177.825
297.711425781,6139.275
298.010559082,6286.2
298.309631348,6448.725
298.608734131,6621.975
298.907806396,6798.55
299.206848145,6923.15
299.505889893,6958.175
299.804901123,7055.45
300.103912354,7136.15
300.402954102,7217.925
300.701904297,7266.825
301.00088501,7321.35
301.299835205,7366.05
301.5987854,7363.125
301.897735596,7464.75
302.196624756,7524.2
302.495513916,7587.5
302.794403076,7603.025
303.093292236,7651.875
303.392120361,7699.6
303.690979004,7788.05
303.989837646,7796.975
304.288604736,7871.325
304.587402344,7836.675
304.886199951,7887.9
305.184967041,7907.3
305.483734131,7964.75
305.782501221,8006.575
306.081176758,8013.0
306.37991333,8006.15
306.678619385,8028.35
306.977294922,8046.9
307.275970459,8076.275
307.574645996,8076.75
307.873260498,8067.575
308.171875,8070.65
308.470489502,8063.55
308.769104004,7990.3
309.067687988,8010.725
309.366241455,7991.625
309.664794922,7952.275
309.963348389,7990.5
310.261871338,7965.775
310.560394287,7960.7
310.858856201,7991.825
311.157348633,8016.425
311.455810547,8028.925
311.754272461,8070.475
312.052703857,8137.825
312.351135254,8122.575
312.649536133,8132.6
312.947937012,8120.1
313.246307373,8135.675
313.544647217,8130.4
313.843017578,8095.975
314.141387939,8045.15
314.439697266,8107.925
314.738006592,8034.475
315.036315918,7977.7
315.334564209,7873.075
315.6328125,7853.575
315.931091309,7789.775
316.229309082,7677.175
316.527526855,7567.875
316.825744629,7544.0
317.123901367,7440.125
317.422088623,7403.575
317.720245361,7423.7
318.0184021,7412.825
318.316497803,7496.4
318.614654541,7522.4
318.912750244,7555.4
319.21081543,7567.275
319.50894165,7622.025
319.806945801,7604.4
320.104980469,7579.7
320.403045654,7601.075
320.701049805,7579.675
320.999023438,7545.175
321.297027588,7506.7
321.595001221,7494.05
321.892913818,7452.2
322.190887451,7390.5
322.488830566,7358.675
322.786712646,7324.25
323.084625244,7239.95
323.382507324,7231.725
323.680358887,7139.45
323.978210449,7073.05
324.276062012,7025.1
324.573852539,6975.4
324.871643066,6929.475
325.169464111,6867.05
325.467224121,6808.125
325.764984131,6728.075
326.062744141,6683.775
326.360473633,6625.3
326.658203125,6576.425
326.955871582,6507.55
327.253570557,6468.125
327.551239014,6383.575
327.848907471,6360.475
328.146514893,6289.625
328.444152832,6217.625
328.741790771,6164.75
329.039367676,6128.125
329.336914062,6064.7
329.634521484,6012.05
329.932067871,5982.55
330.229553223,5904.0
330.527160645,5862.45
330.824615479,5795.075
331.12210083,5738.55
331.419586182,5659.825
331.717041016,5606.15
332.014465332,5516.525
332.311920166,5523.45
332.609313965,5437.425
332.906707764,5442.175
333.204101562,5413.8
333.501495361,5450.775
333.798828125,5496.625
334.096160889,5518.6
334.39352417,5551.875
334.690795898,5627.7
334.988098145,5642.5
335.285400391,5699.425
335.582641602,5711.0
335.879882812,5745.025
336.177124023,5747.15
336.474334717,5809.475
336.77154541,5789.5
337.068725586,5848.1
337.365905762,5853.825
337.66305542,5840.05
337.960205078,5867.125
338.257324219,5883.825
338.554443359,5895.225
338.8515625,5907.825
339.148590088,5917.925
339.445648193,5925.15
339.742736816,5869.0
340.039764404,5877.1
340.336761475,5843.0
340.63381958,5810.45
340.930755615,5765.25
341.227722168,5694.175
341.524688721,5613.5
341.821624756,5601.55
342.118560791,5625.6
342.415496826,5683.125
342.712402344,5806.475
343.009246826,5951.475
343.306121826,6051.075
343.602966309,6068.85
343.899810791,6164.3
344.196624756,6238.95
344.493438721,6256.575
344.79019165,6307.0
345.086975098,6367.975
345.383758545,6395.8
345.680480957,6384.7
345.977203369,6380.825
346.273956299,6465.225
346.570617676,6432.825
346.86730957,6444.15
347.163970947,6424.75
347.460601807,6462.85
347.757232666,6483.975
348.053894043,6444.75
348.350463867,6403.2
348.647064209,6369.075
348.943634033,6363.925
349.24017334,6375.775
349.536712646,6330.475
349.833251953,6345.85
350.129760742,6304.575
350.426208496,6319.225
350.722747803,6271.475
351.019195557,6290.225
351.315612793,6252.85
351.612060547,6197.525
351.908508301,6146.325
352.204864502,6087.65
352.501281738,6079.5
352.797637939,6005.075
353.093963623,5931.875
353.390319824,5873.775
353.686645508,5808.075
353.982940674,5749.175
354.27923584,5704.925
354.575531006,5635.55
354.871765137,5645.5
355.167999268,5623.55
355.464233398,5631.825
355.760437012,5625.025
356.056640625,5634.55
356.352813721,5645.475
356.648956299,5625.45
356.945129395,5642.2
357.241271973,5660.325
357.537384033,5669.3
357.833496094,5621.675
358.129577637,5595.4
358.425628662,5587.55
358.721679688,5547.8
359.017730713,5556.825
359.313720703,5490.95
359.609710693,5474.825
359.905761719,5408.825
360.201721191,5400.4
360.497650146,5334.5
360.793609619,5300.25
361.089538574,5248.475
361.385437012,5164.725
361.681365967,5127.925
361.977233887,5120.575
362.273071289,5049.375
362.568908691,4935.7
362.864746094,4826.2
363.160552979,4723.975
363.456359863,4569.15
363.752166748,4422.5
364.047912598,4364.7
364.343658447,4332.625
364.639434814,4359.075
364.935119629,4381.05
365.230834961,4452.475
365.526550293,4469.375
365.822174072,4492.25
366.117858887,4511.525
366.413482666,4543.6
366.709075928,4550.8
367.004730225,4490.875
367.300292969,4487.025
367.595855713,4515.575
367.891448975,4423.575
368.186981201,4329.475
368.482513428,4283.25
368.778015137,4293.35
369.073547363,4242.025
369.36895752,4257.275
369.664428711,4155.6
369.95993042,4067.45
370.255310059,4020.6
370.550720215,3994.425
370.846160889,3954.775
371.14151001,3920.125
371.436859131,3933.25
371.73223877,3896.05
372.027557373,3873.0
372.322875977,3793.15
372.618164062,3789.1
372.913482666,3740.625
373.208709717,3733.9
373.503967285,3682.5
373.799194336,3652.725
374.094421387,3644.075
374.389648438,3627.35
374.684844971,3619.05
374.979980469,3660.525
375.275146484,3654.325
375.570281982,3659.8
375.865386963,3671.125
376.160522461,3636.3
376.455596924,3649.525
376.750640869,3731.825
377.045715332,3736.375
377.340759277,3763.975
377.635772705,3831.875
377.93081665,3835.475
378.225769043,3928.625
378.520751953,3976.925
378.815734863,3939.7
379.110656738,4098.9
379.405548096,4229.475
379.700500488,4096.6
379.995391846,3909.0
380.290252686,3937.2
380.585083008,4046.025
380.879974365,4085.55
381.17477417,3988.175
381.469543457,3961.0
381.764404297,3928.175
382.059143066,3958.0
382.353912354,4042.75
382.648651123,4124.725
382.943389893,4103.525
383.238067627,3966.7
383.532775879,3974.875
383.827484131,3900.4
384.12210083,3903.6
384.416778564,3857.6
384.711425781,3767.85
385.006011963,3793.15
385.300628662,3799.475
385.595184326,3853.275
385.88973999,3922.4
386.184295654,4043.9
386.478820801,4087.75
386.77331543,4190.025
387.067840576,4301.875
387.362335205,4379.1
387.656768799,4443.675
387.951202393,4480.675
388.245635986,4540.575
388.540039062,4598.325
388.834472656,4675.75
389.128875732,4572.6
389.423187256,4360.475
389.717559814,4317.9
390.011871338,4407.35
390.306182861,4445.275
390.600463867,4458.85
390.894775391,4536.775
391.189025879,4565.1
391.48324585,4558.5
391.777526855,4588.025
392.071685791,4786.525
392.365875244,4886.7
392.660064697,4923.975
392.95425415,5250.025
393.248382568,5244.625
393.542510986,4799.925
393.836608887,4632.1
394.130706787,4641.7
394.424804688,4577.7
394.71887207,4696.625
395.012878418,4684.8
395.306915283,4570.875
395.600921631,4513.075
395.894927979,4489.9
396.188903809,4526.65
396.482879639,4538.15
396.776794434,4731.75
397.070739746,4704.05
397.364654541,4716.675
397.658538818,5077.375
397.952423096,5113.95
398.246307373,5056.55
398.540100098,5562.625
398.833953857,5442.85
399.127746582,5011.85
399.421508789,5003.65
399.715301514,4933.175
400.009063721,4850.1
400.30279541,4725.375
400.596496582,4633.425
400.890258789,4791.525
401.183929443,4875.425
401.47756958,4759.05
401.771240234,4542.575
402.064880371,4590.35
402.35848999,4600.1
402.652130127,4495.725
402.945678711,4586.225
403.239257812,4514.3
403.532775879,4491.45
403.82635498,4515.925
404.119842529,4464.375
404.413360596,4423.3
404.706848145,4494.375
405.000274658,4415.75
405.293762207,4484.95
405.587188721,4552.5
405.880584717,4394.125
406.17401123,4226.025
406.467407227,4044.9
406.760742188,4062.425
407.054107666,4080.3
407.347442627,4015.175
407.640716553,4001.4
407.934051514,4046.925
408.227325439,4107.8
408.520568848,4315.525
408.813842773,4395.45
409.107086182,4205.15
409.400238037,4160.575
409.693450928,4103.65
409.986633301,4204.825
410.279754639,4148.15
410.572875977,3859.775
410.86605835,3798.2
411.159118652,3810.4
411.452209473,3832.425
411.745330811,3700.5
412.038360596,3623.875
412.331390381,3659.275
412.624420166,3687.375
412.917388916,3605.55
413.210388184,3452.45
413.503387451,3421.575
413.796295166,3314.675
414.089233398,3149.325
414.382141113,3083.575
414.675048828,3053.625
414.967926025,3078.925
415.260803223,3052.725
415.55368042,3053.3
415.846466064,3013.85
416.139282227,3109.75
416.432098389,3230.275
416.724853516,3216.075
417.017608643,3163.125
417.31036377,3169.025
417.603088379,3303.95
417.895782471,3258.7
418.188476562,3247.8
418.481140137,3292.275
418.773803711,3344.5
419.066436768,3326.025
419.359039307,3408.425
419.651641846,3401.275
419.944244385,3391.3
420.236816406,3352.375
420.529327393,3561.675
420.821899414,3616.5
421.114379883,3548.25
421.406860352,3785.5
421.699371338,3995.5
421.991821289,3955.625
422.284240723,3755.225
422.576721191,3625.425
422.869110107,3531.425
423.161468506,3483.925
423.453857422,3514.075
423.74621582,3401.05
424.038543701,3287.525
424.330871582,3243.875
424.623168945,3185.875
424.915435791,3319.475
425.207702637,3279.05
425.499969482,3232.375
425.792205811,3165.75
426.084411621,2939.475
426.376617432,3014.225
426.668762207,3077.7
426.9609375,2970.15
427.253082275,3094.1
427.545196533,3450.525
427.837310791,3204.675
428.129425049,2930.9
428.421447754,3138.075
428.713531494,3134.175
429.005554199,3131.375
429.297576904,3125.05
429.589599609,3522.8
429.881561279,3828.15
430.173522949,3636.025
430.465484619,3575.7
430.757415771,3649.45
431.049316406,3438.825
431.341186523,3211.2
431.633117676,3119.525
431.924957275,2848.6
432.21673584,2749.375
432.508636475,2876.775
432.800415039,2904.45
433.092163086,2794.35
433.383972168,2778.225
433.675689697,3440.325
433.967437744,3884.825
434.259155273,3001.175
434.550872803,2712.7
434.842498779,2756.85
435.134185791,2882.2
435.425842285,2894.875
435.717437744,2807.725
436.009063721,2647.775
436.30065918,2769.175
436.592224121,3101.725
436.883758545,2920.55
437.175323486,2663.9
437.466827393,2659.05
437.758331299,2653.75
438.049804688,2676.075
438.341247559,2743.925
438.63269043,2814.125
438.924163818,2797.55
439.215515137,2775.85
439.50692749,2663.825
439.798309326,2669.25
440.089660645,2685.825
440.380981445,2606.975
440.672332764,2605.1
440.963623047,2847.775
441.254882812,3272.675
441.546173096,3440.125
441.837402344,3206.375
442.128631592,3034.325
442.41986084,3015.025
442.711029053,2889.15
443.002197266,2970.4
443.293365479,3135.875
443.584503174,3253.475
443.875610352,3233.375
444.166717529,2981.65
444.457794189,3034.425
444.748840332,3020.575
445.039916992,2977.775
445.330932617,3061.075
445.621948242,2925.875
445.912963867,2740.25
446.203918457,2951.2
446.494812012,3158.375
446.785827637,2975.7
447.076721191,2805.15
447.367584229,2792.1
447.658447266,2770.65
447.949371338,2823.775
448.24017334,2705.05
448.530975342,2636.65
448.821838379,2787.8
449.112579346,2870.625
449.40335083,2797.725
449.694152832,2837.95
449.984863281,2828.825
450.27557373,2786.775
450.56628418,2820.525
450.856933594,2833.65
451.147583008,2708.4
451.438262939,2598.675
451.728881836,2795.9
452.019470215,2878.1
452.310089111,2695.875
452.600646973,2712.825
452.891174316,2761.65
453.181732178,2587.7
453.472229004,2463.55
453.762695312,2594.125
454.053222656,2607.1
454.343658447,2488.725
454.634063721,2426.55
454.924530029,2590.95
455.214935303,2722.625
455.505279541,2780.875
455.795715332,2659.725
456.086029053,2478.7
456.376312256,2464.2
456.666687012,2486.65
456.956939697,2586.725
457.247192383,2578.325
457.537445068,2640.125
457.827728271,2818.95
458.117919922,2751.95
458.408081055,2690.45
458.698303223,2854.2
458.988433838,2790.775
459.278564453,2631.85
459.568725586,2880.175
459.858825684,2992.225
460.148864746,2711.225
460.438995361,2663.95
460.729034424,2724.325
461.019042969,2735.025
461.309082031,2906.0
461.599060059,2797.15
461.889007568,2368.875
462.179016113,2222.375
462.468933105,2422.275
462.75881958,2533.075
463.048736572,2296.875
463.338592529,2545.075
463.628448486,2872.925
463.918365479,2598.775
464.2081604,2760.925
464.497924805,2715.475
464.787780762,2836.925
465.077514648,3117.35
465.367218018,2755.375
465.657012939,2955.7
465.946685791,3333.125
466.236358643,2966.55
466.526092529,2463.075
466.815734863,2467.025
467.105316162,2389.45
467.394927979,2427.55
467.684570312,2283.95
467.974121094,2374.625
468.263671875,2471.55
468.553222656,2269.475
468.842773438,2172.325
469.132232666,2082.6
469.42175293,2103.55
469.711212158,2084.0
470.000640869,1953.3
470.290100098,2017.8
470.579498291,2049.8
470.868835449,2047.2
471.158294678,2000.85
471.447601318,2005.625
471.736907959,2062.25
472.026275635,2132.025
472.315551758,2103.825
472.604797363,2107.125
472.894104004,2224.275
473.183319092,2322.35
473.47253418,2312.1
473.761779785,2309.025
474.05090332,2240.075
474.340087891,2209.625
474.629241943,2131.25
474.918365479,2284.675
475.207427979,2542.05
475.496551514,2579.75
475.785614014,2331.325
476.074645996,2148.975
476.363708496,2223.75
476.652679443,2357.05
476.941650391,2192.8
477.230682373,2051.45
477.519622803,2051.45
477.808502197,2185.725
478.097412109,2437.05
478.386352539,2396.925
478.675201416,2140.2
478.964050293,2041.375
479.25289917,2217.5
479.541717529,2275.425
479.830474854,2132.775
480.11932373,2442.0
480.408050537,2617.025
480.696777344,2248.925
480.985534668,2135.825
481.274200439,2216.5
481.562866211,2456.675
481.851593018,2466.35
482.140197754,2426.35
482.428833008,2268.725
482.717468262,2066.7
483.006011963,2112.625
483.294586182,2226.825
483.5831604,2257.85
483.871673584,2128.0
484.16015625,2260.675
484.448699951,2483.15
484.7371521,2534.025
485.02557373,2527.375
485.314025879,2277.825
485.602416992,3528.025
485.890777588,12555.475
486.179199219,11167.85
486.467559814,2984.05
486.755859375,2186.6
487.044219971,2537.3
487.332519531,2700.175
487.620758057,2316.675
487.908966064,2084.15
488.197265625,1901.025
488.485473633,1797.45
488.773651123,1920.6
489.061859131,1900.3
489.350006104,1858.225
489.638122559,1799.0
489.926300049,1813.0
490.214355469,1773.425
490.502441406,1729.65
490.790527344,1657.85
491.078552246,1842.775
491.366546631,1836.15
491.654602051,1620.125
491.942565918,1694.4
492.230499268,1733.6
492.518493652,1691.525
492.806396484,1728.225
493.094268799,1654.275
493.382202148,1668.5
493.670074463,1798.825
493.957885742,1654.975
494.245727539,1640.65
494.533508301,1801.2
494.821289062,1688.275
495.109100342,1556.95
495.396850586,1507.675
495.684539795,1470.625
495.972290039,1672.0
496.25994873,1972.85
496.547607422,1987.05
496.835296631,1824.15
497.122894287,1519.25
497.410522461,1445.6
497.6980896,1443.05
497.985687256,1412.225
498.273223877,1507.025
498.560760498,1578.1
498.848266602,1585.35
499.135772705,1572.925
499.423217773,1607.375
499.710693359,1704.825
499.998138428,1639.7
500.285522461,1499.7
500.572937012,1417.35
500.860290527,1481.625
501.147644043,1561.55
501.434997559,1769.25
501.722290039,1641.875
502.00958252,1429.4
502.296875,1682.15
502.584106445,1665.275
502.871337891,1499.225
503.158599854,1570.05
503.445770264,1646.45
503.732910156,1628.45
504.020141602,1450.5
504.307220459,1437.275
504.594329834,1470.025
504.881469727,1404.1
505.168518066,1468.625
505.455535889,1532.0
505.742614746,1415.575
506.029632568,1354.075
506.316589355,1529.775
506.603637695,1610.575
506.890563965,1429.775
507.177459717,1277.875
507.464385986,1201.9
507.751312256,1407.45
508.038146973,1482.1
508.325012207,1344.9
508.611877441,1409.0
508.898681641,1421.7
509.185424805,1265.075
509.472259521,1225.9
509.759002686,1314.475
510.045715332,1340.675
510.332458496,1286.1
510.619140625,1343.475
510.905761719,1262.975
511.192504883,1258.2
511.479095459,1302.05
511.765686035,1251.325
512.052307129,1169.225
512.338928223,1129.95
512.625427246,1182.925
512.91204834,1233.8
513.198486328,1218.9
513.484985352,1180.9
513.77142334,1118.325
514.057922363,1159.875
514.344299316,1153.975
514.63079834,1124.5
514.917175293,1104.15
515.203552246,1019.85
515.489868164,1002.075
515.776245117,1116.2
516.0625,1149.975
516.348815918,1067.7
516.635070801,1101.1
516.921325684,1148.75
517.207580566,1095.0
517.493774414,1005.25
517.779968262,1015.925
518.066101074,1052.9
518.352294922,1010.575
518.638366699,1011.4
518.924499512,1086.15
519.210632324,1149.925
519.496643066,1121.8
519.782714844,1038.325
520.068786621,996.225
520.354736328,959.125
520.640686035,923.575
520.926757812,962.675
521.212646484,1037.575
521.498535156,1045.625
521.784484863,996.575
522.0703125,935.65
522.356262207,947.025
522.642089844,1018.575
522.927856445,1015.45
523.213684082,1008.375
523.499511719,1005.1
523.78527832,1035.95
524.070983887,1087.525
524.356750488,1064.95
524.64239502,1036.125
524.928039551,1023.525
525.213806152,1034.6
525.499389648,1026.35
525.784973145,1056.9
526.070617676,1098.325
526.356140137,1067.2
526.641723633,1065.975
526.927307129,1129.6
527.212768555,1138.85
527.498291016,1116.35
527.783752441,1105.0
528.069213867,1108.15
528.354675293,1126.575
528.640014648,1273.65
528.925476074,1340.25
529.21081543,1255.05
529.496154785,1232.15
529.781555176,1210.325
530.066833496,1222.2
530.352050781,1239.3
530.637390137,1229.9
530.922607422,1230.975
531.207824707,1226.95
531.493041992,1203.8
531.778198242,1272.425
532.063354492,1262.825
532.348571777,1211.475
532.633666992,1228.0
532.918762207,1295.025
533.203857422,1380.475
533.488891602,1398.15
533.773925781,1350.725
534.059020996,1322.85
534.343933105,1349.8
534.628967285,1338.675
534.91394043,1354.05
535.198852539,1368.65
535.483703613,1340.025
535.768676758,1288.05
536.053527832,1300.175
536.338317871,1250.0
536.62322998,1199.35
536.90802002,1171.775
537.192810059,1194.575
537.477539062,1263.1
537.762329102,1305.5
538.047058105,1347.35
538.331726074,1373.375
538.616455078,1365.025
538.901123047,1337.875
539.18572998,1387.5
539.470397949,1393.1
539.755004883,1372.25
540.039550781,1335.0
540.32409668,1301.775
540.608703613,1348.7
540.893188477,1423.7
541.17767334,1443.1
541.462158203,1452.55
541.746643066,1391.25
542.031066895,1443.9
542.315429688,1483.175
542.59979248,1479.175
542.884216309,1462.1
543.168579102,1449.55
543.452941895,1460.875
543.737243652,1515.4
544.021484375,1558.875
544.305725098,1548.475
544.590026855,1525.075
544.874267578,1523.375
545.158447266,1598.775
545.442626953,1517.625
545.726806641,1416.725
546.010925293,1457.675
546.29510498,1482.8
546.579162598,1483.875
546.863220215,1511.8
547.147277832,1583.45
547.431335449,1650.175
547.715332031,1703.9
547.999328613,1814.95
548.283325195,1829.05
548.567260742,1697.575
548.851135254,1672.375
549.135070801,1630.35
549.419006348,1546.425
549.702819824,1628.05
549.986755371,1708.9
550.270507812,1672.125
550.554321289,1718.1
550.83807373,1736.775
551.121826172,1687.7
551.405517578,1705.65
551.689331055,1820.85
551.973022461,2032.2
552.256652832,2091.75
552.540344238,2011.775
552.823974609,1977.6
553.107543945,1963.225
553.391174316,2009.1
553.674743652,2066.95
553.958251953,2081.1
554.241821289,2090.6
554.525268555,2026.525
554.808776855,2023.125
555.092285156,2200.625
555.375671387,2273.8
555.659057617,2278.0
555.942504883,2305.975
556.225891113,2351.5
556.509216309,2300.2
556.792541504,2219.45
557.075866699,2281.075
557.359130859,2331.925
557.64239502,2314.25
557.92565918,2410.825
558.208862305,2381.55
558.49206543,2320.1
558.77532959,2332.075
559.058410645,2380.4
559.341552734,2374.275
559.624694824,2428.125
559.907775879,2488.2
560.190856934,2607.125
560.473937988,2596.95
560.756896973,2643.025
561.039978027,2682.725
561.322937012,2634.375
561.605895996,2622.775
561.88885498,2587.425
562.171813965,2585.5
562.454650879,2581.85
562.737548828,2625.05
563.020446777,2684.025
563.303283691,2693.575
563.58605957,2720.275
563.868896484,2756.3
564.151672363,2780.25
564.434387207,2827.575
564.717163086,2788.95
564.99987793,2843.9
565.282531738,2907.75
565.565185547,2851.775
565.847839355,2839.4
566.130432129,2964.5
566.413085938,2939.65
566.695678711,2952.975
566.978149414,3050.625
567.260681152,3210.35
567.543273926,3269.625
567.825744629,3167.8
568.108154297,3211.5
568.390686035,3347.225
568.673095703,3453.725
568.955505371,3508.125
569.237854004,3531.575
569.520202637,3774.875
569.802490234,4001.525
570.084838867,3980.625
570.367126465,3815.625
570.649414062,3833.0
570.93170166,4170.25
571.213928223,4227.8
571.496154785,3995.925
571.778381348,4207.425
572.06048584,4472.95
572.342590332,4033.8
572.624755859,3718.075
572.906860352,3760.575
573.188903809,4433.225
573.470947266,4657.05
573.752990723,4426.8
574.03503418,4521.425
574.317016602,4900.25
574.598937988,4712.3
574.88092041,4576.775
575.162841797,4763.875
575.444763184,4399.45
575.726623535,4159.55
576.008483887,4192.25
576.290344238,4581.4
576.572143555,4752.6
576.853881836,4826.175
577.135681152,4739.375
577.417419434,4804.825
577.699157715,5653.425
577.980895996,5802.875
578.262573242,5174.7
578.544128418,4717.725
578.825866699,4652.65
579.107421875,4348.675
579.388977051,4516.875
579.670593262,4900.525
579.952148438,4744.275
580.233642578,4837.75
580.515197754,4966.6
580.796691895,4674.3
581.078125,4854.3
581.359619141,6310.325
581.640991211,6395.3
581.922363281,5523.575
582.203796387,5571.425
582.485107422,5204.65
582.766418457,4855.1
583.047790527,4685.175
583.329040527,4583.925
583.610290527,4454.825
583.891540527,4565.5
584.172790527,4866.95
584.453918457,4881.925
584.735107422,4926.4
585.016235352,5347.675
585.297363281,5338.525
585.578552246,5168.8
585.859619141,5087.725
586.140625,4869.55
586.421630859,4751.975
586.702697754,4779.075
586.983642578,5001.325
587.264648438,5154.95
587.545654297,5121.075
587.826477051,5047.95
588.107421875,4863.475
588.388305664,4918.85
588.669189453,5008.15
588.950012207,4863.925
589.230834961,4762.95
589.511657715,4859.725
589.792358398,4938.625
590.073120117,4952.475
590.353881836,4907.825
590.63458252,4946.6
590.915283203,4891.15
591.195922852,4886.175
591.4765625,4939.55
591.757202148,4983.7
592.037780762,4956.95
592.31829834,4986.525
592.598937988,5187.075
592.879394531,5343.3
593.159912109,5254.175
593.440429688,5203.275
593.720825195,5150.0
594.001281738,5152.275
594.281677246,5079.575
594.562072754,5078.575
594.842407227,5178.5
595.122802734,5221.35
595.403137207,5208.3
595.683410645,5168.825
595.963623047,5165.05
596.243896484,5129.825
596.524169922,5123.2
596.804382324,5126.875
597.084533691,5192.025
597.364746094,5194.8
597.644836426,5225.8
597.924987793,5200.5
598.205078125,5175.325
598.485107422,5225.875
598.765197754,5337.125
599.045227051,5368.15
599.325195312,5309.05
599.605224609,5249.2
599.885192871,5281.7
600.165100098,5322.9
600.445007324,5294.3
600.724914551,5266.525
601.004760742,5300.475
601.284667969,5309.975
601.56451416,5273.875
601.844238281,5299.025
602.124084473,5307.9
602.403808594,5305.275
602.683532715,5345.725
602.963256836,5307.375
603.242919922,5362.3
603.522583008,5392.4
603.802246094,5384.625
604.081848145,5321.825
604.36138916,5325.575
604.641052246,5327.775
604.920532227,5310.875
605.200073242,5351.775
605.479614258,5374.775
605.759094238,5400.775
606.038574219,5391.25
606.317932129,5355.2
606.597412109,5356.3
606.87677002,5351.175
607.15612793,5394.525
607.435546875,5397.825
607.714782715,5413.7
607.99407959,5357.05
608.273376465,5342.025
608.552612305,5374.3
608.831848145,5396.4
609.111083984,5384.625
609.390258789,5345.325
609.669433594,5348.125
609.948608398,5412.9
610.227722168,5396.425
610.506713867,5339.025
610.785888672,5351.05
611.064880371,5331.7
611.34387207,5342.2
611.622924805,5370.7
611.901916504,5371.45
612.180847168,5304.525
612.459777832,5322.725
612.738647461,5301.775
613.01751709,5263.275
613.296447754,5224.025
613.575317383,5207.825
613.854064941,5162.375
614.132873535,5067.075
614.411621094,5027.4
614.690368652,4972.55
614.969177246,4923.55
615.247802734,4859.7
615.526489258,4814.625
615.805175781,4729.675
616.08380127,4621.825
616.362365723,4535.4
616.640991211,4495.1
616.919555664,4430.3
617.198059082,4558.675
617.4765625,4808.075
617.755126953,4957.9
618.033569336,4974.4
618.311950684,4969.275
618.590454102,4971.725
618.868774414,4937.975
619.147155762,4948.75
619.425598145,4905.6
619.703857422,4938.4
619.982177734,4957.7
620.260498047,4939.8
620.538757324,4933.275
620.816955566,4909.275
621.095214844,4867.075
621.373413086,4887.4
621.651550293,4943.525
621.929748535,4962.425
622.207824707,4936.575
622.485900879,4954.125
622.764038086,4951.275
623.042053223,4994.375
623.320007324,4996.075
623.598083496,4982.125
623.876037598,4968.8
624.153991699,4993.625
624.432006836,5004.25
624.709838867,5023.075
624.987731934,5028.625
625.265563965,5008.075
625.543395996,5011.275
625.821228027,5064.675
626.098999023,5052.2
626.376831055,5110.2
626.654541016,5106.125
626.932250977,5157.625
627.209960938,5195.325
627.487670898,5232.225
627.765319824,5218.25
628.04296875,5216.0
628.320495605,5241.025
628.598083496,5229.75
628.875671387,5265.8
629.153259277,5294.6
629.430725098,5345.05
629.708251953,5331.45
629.985656738,5353.325
630.263122559,5387.55
630.540588379,5398.125
630.817932129,5434.525
631.095275879,5453.45
631.372680664,5483.425
631.649963379,5526.6
631.927246094,5558.55
632.204589844,5605.925
632.481811523,5639.325
632.759033203,5724.3
633.036254883,5751.225
633.313415527,5798.125
633.590576172,5876.4
633.867736816,5938.325
634.144836426,6037.725
634.421875,6058.1
634.698913574,6114.15
634.976013184,6157.95
635.252990723,6236.825
635.529968262,6247.8
635.807006836,6322.05
636.08392334,6303.925
636.360839844,6221.15
636.637756348,6116.775
636.914611816,6077.7
637.191467285,6065.7
637.468261719,6137.7
637.745056152,6093.825
638.021789551,6127.45
638.298583984,6125.7
638.575317383,6144.175
638.851989746,6155.45
639.12878418,6148.75
639.405395508,6155.5
639.682006836,6177.4
639.958618164,6167.25
640.235229492,6151.75
640.511779785,6192.15
640.788330078,6156.075
641.064880371,6175.325
641.341308594,6131.525
641.617797852,6147.75
641.894226074,6138.75
642.170654297,6161.3
642.44708252,6162.25
642.723388672,6157.475
642.999755859,6136.725
643.276123047,6155.25
643.552429199,6131.775
643.828674316,6127.525
644.104919434,6119.65
644.381164551,6102.15
644.657348633,6100.7
644.933532715,6080.25
645.209716797,6091.9
645.485839844,6095.775
645.761901855,6067.25
646.038024902,6087.3
646.314086914,6110.2
646.590087891,6050.35
646.866149902,6084.425
647.142150879,6052.325
647.41809082,6025.225
647.694030762,6024.475
647.969970703,6009.275
648.245788574,6028.175
648.521728516,5992.75
648.797546387,6003.375
649.073303223,6022.175
649.349182129,5986.55
649.624938965,5960.0
649.900634766,5990.95
650.176391602,5973.15
650.452087402,5944.225
650.727783203,5957.425
651.003479004,5970.05
651.279052734,5931.7
651.554626465,5921.825
651.83026123,5918.9
652.105773926,5945.05
652.381286621,5890.925
652.656860352,5915.8
652.932312012,5911.125
653.207763672,5893.725
653.483215332,5926.325
653.758605957,5902.8
654.033935547,5903.8
654.309326172,5891.1
654.584716797,5923.075
654.859985352,5893.55
655.135253906,5913.25
655.410583496,5923.1
655.685791016,6827.525
655.9609375,10635.425
656.236206055,10415.45
656.511291504,6880.575
656.786437988,6043.425
657.061645508,5936.05
657.336669922,5902.975
657.611694336,5938.0
657.886779785,5955.55
658.161804199,5964.9
658.436828613,5919.0
658.711791992,5937.1
658.986755371,5962.875
659.261657715,5949.35
659.536621094,5946.925
659.811401367,5950.925
660.086303711,5951.475
660.36114502,5947.175
660.635864258,5955.375
660.910644531,5959.95
661.185424805,5955.05
661.460205078,5963.525
661.734863281,5951.475
662.009521484,5948.975
662.284179688,5965.9
662.558776855,5987.05
662.833435059,5998.4
663.108032227,5995.45
663.382568359,5992.55
663.657043457,6026.175
663.93157959,6027.7
664.206054688,5998.875
664.48046875,6038.7
664.755004883,6030.95
665.02935791,6046.975
665.303710938,6054.1
665.578125,6076.925
665.852416992,6051.55
666.126708984,6063.625
666.401062012,6050.65
666.675292969,6088.45
666.949462891,6058.775
667.223754883,6067.575
667.497924805,6095.05
667.772094727,6097.375
668.046264648,6069.725
668.3203125,6129.425
668.594421387,6140.475
668.868469238,6127.375
669.14251709,6115.95
669.416503906,6135.0
669.690551758,6127.775
669.964477539,6149.65
670.23840332,6123.075
670.512329102,6151.125
670.786254883,6097.85
671.060058594,6153.95
671.333984375,6133.25
671.607788086,6153.575
671.881530762,6134.225
672.155334473,6179.775
672.429077148,6169.875
672.702758789,6180.2
672.97644043,6160.7
673.25012207,6150.825
673.523742676,6150.1
673.797302246,6123.85
674.070922852,6181.6
674.344482422,6173.175
674.618041992,6161.55
674.891601562,6153.0
675.165100098,6145.925
675.438476562,6143.875
675.711975098,6163.0
675.985412598,6138.8
676.258789062,6114.325
676.532165527,6164.95
676.805480957,6137.45
677.078796387,6157.825
677.352111816,6154.525
677.625366211,6141.225
677.898620605,6131.325
678.171875,6162.625
678.445007324,6120.15
678.718200684,6171.225
678.991394043,6166.325
679.264404297,6124.15
679.537536621,6139.25
679.81060791,6174.1
680.083679199,6128.725
680.356689453,6138.225
680.629699707,6154.25
680.902648926,6112.4
681.175598145,6155.7
681.448547363,6178.525
681.721435547,6118.15
681.99420166,6113.025
682.267150879,6088.65
682.539916992,6137.75
682.812744141,6096.7
683.085510254,6084.75
683.358215332,6089.225
683.63092041,6070.175
683.903625488,6039.75
684.176330566,6031.35
684.448913574,6024.325
684.721557617,6008.75
684.99420166,6048.85
685.266662598,6008.95
685.539245605,6040.125
685.811767578,6052.525
686.084289551,6050.325
686.356689453,6064.175
686.629150391,6073.8
686.901550293,6081.575
687.17401123,6066.475
687.446350098,6078.175
687.718688965,6079.65
687.990966797,6087.175
688.263305664,6094.475
688.535522461,6052.05
688.807739258,6066.575
689.079956055,6086.95
689.352172852,6077.525
689.624328613,6043.675
689.896484375,6065.55
690.168518066,6066.875
690.440612793,6081.5
690.71270752,6079.65
690.984741211,6084.2
691.256713867,6070.775
691.528747559,6051.875
691.800720215,6057.075
692.072631836,6066.675
692.344543457,6094.9
692.616394043,6091.525
692.888244629,6079.25
693.160095215,6113.65
693.431945801,6116.525
693.703674316,6063.425
693.975463867,6051.6
694.247131348,6075.65
694.518859863,6078.95
694.790588379,6090.35
695.062255859,6068.425
695.33380127,6048.725
695.60546875,6036.85
695.87701416,6050.45
696.148498535,6049.85
696.42010498,6052.975
696.691589355,6062.4
696.96307373,6072.225
697.234558105,6107.275
697.50592041,6056.225
697.777282715,6074.725
698.048706055,6072.7
698.320068359,6102.425
698.591308594,6042.35
698.862670898,6042.125
699.133972168,6085.75
699.405151367,6033.65
699.676391602,6081.175
699.947570801,6053.6
700.21875,6043.975
700.489868164,6054.825
700.761047363,6033.95
701.032104492,6066.125
701.303100586,6009.775
701.57421875,6027.75
701.845214844,6044.675
702.116149902,6037.675
702.387207031,6020.825
702.65814209,6031.85
702.928955078,6037.025
703.199951172,6014.6
703.47076416,5987.475
703.741577148,5953.85
704.012451172,5987.625
704.28314209,5999.15
704.553955078,5968.775
704.824707031,5994.775
705.095397949,6009.225
705.366027832,5995.25
705.63671875,5994.15
705.907348633,5960.5
706.17791748,5963.675
706.448486328,5976.75
706.719055176,5969.15
706.989562988,5979.85
707.260131836,5977.25
707.530517578,5975.45
707.800964355,5972.3
708.071411133,5926.7
708.341796875,5938.825
708.612182617,5932.225
708.882446289,5878.3
709.152893066,5916.475
709.423156738,5901.675
709.693359375,5883.925
709.963623047,5896.575
710.233825684,5913.375
710.503967285,5868.775
710.774169922,5889.9
711.044311523,5859.075
711.31439209,5840.625
711.584533691,5869.675
711.854553223,5845.225
712.124572754,5856.275
712.39465332,5809.65
712.664611816,5838.85
712.934509277,5856.525
713.204467773,5834.0
713.474365234,5856.35
713.74420166,5819.95
714.014099121,5828.1
714.283874512,5810.525
714.553710938,5825.275
714.823486328,5815.8
715.093200684,5790.25
715.362915039,5791.05
715.632629395,5763.075
715.902282715,5755.15
716.171875,5761.8
716.441589355,5748.8
716.711181641,5725.525
716.980712891,5737.0
717.250244141,5713.35
717.519775391,5706.175
717.78918457,5714.45
718.058654785,5754.3
718.328125,5768.175
718.597473145,5736.125
718.866882324,5706.6
719.136230469,5734.0
719.405578613,5730.2
719.674865723,5721.525
719.944152832,5721.75
720.213439941,5685.975
720.48260498,5711.425
720.75177002,5691.8
721.020996094,5700.525
721.290100098,5697.525
721.559204102,5688.775
721.828308105,5688.6
722.097351074,5680.6
722.366455078,5672.075
722.635437012,5618.225
722.904418945,5600.95
723.173400879,5631.8
723.442321777,5645.4
723.711181641,5623.55
723.980102539,5640.0
724.248962402,5620.3
724.51776123,5597.675
724.786560059,5618.15
725.055358887,5615.125
725.324035645,5583.225
725.592834473,5583.525
725.86151123,5559.6
726.130187988,5546.575
726.398803711,5549.0
726.667419434,5553.1
726.935974121,5541.55
727.204528809,5503.3
727.473083496,5497.575
727.741638184,5489.075
728.010070801,5488.025
728.278564453,5480.7
728.546936035,5470.275
728.815368652,5431.15
729.08380127,5356.525
729.352111816,5338.675
729.620361328,5290.65
729.88873291,5321.75
730.156982422,5351.4
730.425231934,5352.175
730.693481445,5337.9
730.961669922,5395.475
731.229797363,5410.6
731.49798584,5404.425
731.766113281,5418.925
732.034118652,5459.4
732.302246094,5517.425
732.570251465,5519.15
732.838256836,5509.525
733.106262207,5589.55
733.374145508,5576.425
733.642089844,5611.425
733.909973145,5641.475
734.177856445,5673.975
734.445678711,5702.15
734.713562012,5787.725
734.981323242,5794.775
735.249084473,5838.5
735.516845703,5924.0
735.784545898,5937.325
736.052185059,5958.125
736.319885254,6019.275
736.587524414,6072.0
736.855102539,6066.225
737.122619629,6159.175
737.390197754,6171.375
737.657714844,6247.65
737.925170898,6275.8
738.192749023,6341.0
738.460144043,6356.075
738.727539062,6401.425
738.994995117,6465.625
739.262329102,6495.525
739.529663086,6577.3
739.79699707,6594.975
740.06427002,6591.85
740.331481934,6657.125
740.598754883,6700.5
740.865905762,6712.4
741.133056641,6817.2
741.40032959,6815.525
741.667358398,6862.7
741.934448242,6872.275
742.201599121,6891.775
742.468566895,6966.175
742.735534668,7010.8
743.002563477,6998.95
743.26953125,7007.125
743.536437988,7052.225
743.803405762,7103.525
744.0703125,7079.875
744.337097168,7171.025
744.604003906,7091.475
744.870727539,7164.725
745.137512207,7171.0
745.40423584,7175.375
745.670959473,7164.8
745.93762207,7165.175
746.204284668,7198.375
746.470947266,7187.525
746.737548828,7191.5
747.004089355,7217.625
747.270751953,7217.675
747.53717041,7265.15
747.803710938,7193.025
748.070251465,7208.45
748.336608887,7192.875
748.603027344,7170.625
748.869445801,7176.675
749.135803223,7171.6
749.402099609,7165.325
749.668457031,7174.675
749.934753418,7148.75
750.20098877,7132.4
750.467224121,7158.7
750.733459473,7133.05
750.999572754,7100.425
751.26574707,7069.75
751.531860352,7100.825
751.797912598,7067.025
752.064025879,7034.35
752.330078125,7061.425
752.596069336,7027.475
752.862060547,7013.5
753.127990723,7024.35
753.393920898,7009.15
753.659912109,6997.7
753.925720215,7007.925
754.19152832,7003.025
754.457397461,6954.35
754.723144531,6942.925
754.988952637,6895.325
755.254699707,6906.75
755.520385742,6926.9
755.786071777,6904.6
756.051696777,6890.625
756.317382812,6883.575
756.582946777,6859.95
756.848510742,6864.675
757.114074707,6822.95
757.379577637,6814.875
757.645080566,6857.8
757.910583496,6870.15
758.175964355,6787.6
758.441345215,6799.2
758.706848145,6687.05
758.972106934,6711.475
759.237426758,6702.625
759.502807617,6720.5
759.768005371,6745.275
760.03326416,6698.125
760.298522949,6669.05
760.563659668,6686.9
760.828857422,6666.0
761.093994141,6695.65
761.359130859,6630.825
761.624206543,6627.725
761.889282227,6616.175
762.15423584,6601.775
762.419250488,6590.3
762.684265137,6560.5
762.949157715,6538.575
763.214050293,6552.075
763.479003906,6532.975
763.743835449,6537.5
764.008666992,6498.025
764.2734375,6501.5
764.538208008,6506.65
764.802978516,6525.175
765.067687988,6535.125
765.332397461,6505.1
765.597045898,6497.75
765.861694336,6486.35
766.126342773,6478.5
766.390930176,6452.675
766.655395508,6437.775
766.920043945,6397.0
767.184509277,6407.225
767.448974609,6418.875
767.713439941,6389.725
767.977783203,6364.15
768.2421875,6392.025
768.506591797,6372.075
768.770874023,6432.2
769.03515625,6414.375
769.299499512,6406.775
769.563720703,6383.125
769.827941895,6374.25
770.092163086,6369.975
770.356323242,6364.9
770.620483398,6368.65
770.88458252,6371.025
771.148681641,6376.25
771.412719727,6361.925
771.676757812,6382.775
771.940734863,6332.05
772.204711914,6316.825
772.468688965,6309.875
772.73260498,6309.65
772.996459961,6329.8
773.260314941,5622.1
773.524169922,752.525
773.787963867,139.125
774.051696777,123.95
774.315551758,120.75
774.579223633,123.55
774.842895508,119.9
775.106567383,123.25
775.370239258,116.375
775.633789062,122.925
775.897399902,125.8
776.160949707,119.675
776.424499512,123.1
776.687988281,123.4
776.951477051,127.0
777.214904785,119.325
777.47833252,122.9
