191.299911499,101.675
191.603515625,103.4
191.907119751,99.175
192.210693359,105.225
192.514251709,97.575
192.817810059,104.35
193.121368408,104.95
193.42489624,105.475
193.728408813,96.95
194.031936646,100.9
194.33543396,89.6
194.638916016,113.8
194.94241333,95.25
195.245880127,96.4
195.549331665,96.925
195.852767944,98.7
196.156204224,209.7
196.459625244,202.025
196.763015747,200.95
197.066436768,209.7
197.369812012,202.45
197.673187256,206.225
197.9765625,203.0
198.279922485,207.35
198.583251953,198.475
198.886581421,205.25
199.18989563,213.325
199.493209839,207.725
199.79649353,197.275
200.09979248,208.6
200.403076172,202.95
200.706314087,205.75
201.009567261,204.625
201.312820435,206.35
201.616027832,196.95
201.919235229,194.5
202.222457886,198.375
202.525634766,203.45
202.828826904,193.15
203.132003784,191.85
203.435150146,195.3
203.738296509,194.2
204.041412354,193.675
204.344558716,202.525
204.647659302,205.0
204.950759888,204.35
205.253845215,200.1
205.556930542,195.0
205.859985352,198.475
206.163024902,196.05
206.466079712,199.975
206.769104004,210.775
207.072113037,201.525
207.375137329,197.325
207.678131104,198.975
207.981109619,202.5
208.284088135,197.2
208.587036133,205.525
208.889984131,206.925
209.19291687,205.45
209.495849609,210.05
209.798751831,207.175
210.101654053,204.25
210.404556274,206.5
210.707427979,206.325
211.010269165,214.125
211.31312561,211.15
211.615982056,207.975
211.918807983,212.125
212.221618652,208.9
212.524429321,205.525
212.827224731,216.55
213.130004883,216.075
213.432769775,216.15
213.735534668,220.025
214.038269043,224.25
214.341003418,219.5
214.643737793,223.175
214.946456909,225.725
215.249145508,226.6
215.551834106,228.875
215.854507446,235.25
216.157165527,228.875
216.45980835,233.95
216.762451172,240.95
217.065078735,239.45
217.36769104,236.25
217.670303345,241.325
217.972885132,247.75
218.275466919,244.55
218.578048706,242.6
218.880599976,255.45
219.183120728,256.1
219.485656738,261.175
219.788192749,279.125
220.090682983,297.675
220.393188477,327.125
220.695663452,369.375
220.998138428,403.4
221.300582886,457.9
221.603042603,503.325
221.905487061,569.25
222.207901001,642.8
222.510299683,699.275
222.812728882,799.675
223.115097046,902.325
223.41746521,990.45
223.719848633,1107.525
224.022171021,1204.65
224.324508667,1323.975
224.626846313,1447.4
224.929168701,1550.95
225.231460571,1680.675
225.533737183,1794.5
225.836013794,1921.95
226.138290405,2039.725
226.440536499,2155.225
226.742767334,2245.575
227.044998169,2347.05
227.347213745,2475.25
227.649429321,2575.725
227.951629639,2638.975
228.253799438,2714.35
228.555953979,2808.8
228.858123779,2876.2
229.160263062,2917.5
229.462371826,2980.925
229.764511108,3051.275
230.066619873,3097.575
230.36869812,3149.8
230.670776367,3205.275
230.972854614,3287.225
231.274902344,3340.025
231.576950073,3402.6
231.878967285,3426.55
232.180999756,3538.4
232.48298645,3584.75
232.784988403,3643.25
233.086975098,3725.225
233.388946533,3782.675
233.69090271,3849.875
233.992858887,3928.375
234.294769287,3956.65
234.596694946,4000.825
234.898605347,4080.6
235.200500488,4114.275
235.502380371,4162.475
235.804244995,4200.0
236.106109619,4218.825
236.407958984,4251.375
236.709777832,4316.125
237.011581421,4314.175
237.313400269,4352.25
237.615203857,4371.65
237.916976929,4433.625
238.21875,4432.225
238.520507812,4478.275
238.822250366,4503.675
239.12399292,4522.3
239.425704956,4546.8
239.727401733,4554.525
240.02911377,4624.425
240.330780029,4590.775
240.632446289,4611.05
240.93409729,4652.725
241.23576355,4691.9
241.537384033,4740.275
241.839004517,4769.625
242.140594482,4807.15
242.442199707,4857.2
242.743774414,4918.7
243.045333862,4933.95
243.346923828,4995.325
243.648452759,5027.2
243.949966431,5072.125
244.251495361,5133.175
244.552993774,5148.5
244.854492188,5167.875
245.155975342,5225.875
245.457443237,5268.75
245.758880615,5325.225
246.060333252,5352.075
246.36177063,5350.35
246.66317749,5414.125
246.964569092,5433.875
247.265945435,5457.625
247.567337036,5524.8
247.86869812,5569.675
248.170059204,5613.425
248.471389771,5641.0
248.772705078,5750.55
249.074035645,5814.975
249.375335693,5894.575
249.676620483,5945.75
249.977890015,6059.225
250.279159546,6177.15
250.58039856,6264.625
250.881637573,6331.05
251.182876587,6431.4
251.484069824,6565.2
251.785263062,6665.2
252.086456299,6813.7
252.387619019,6881.75
252.688781738,7007.45
252.989929199,7134.35
253.291061401,7228.65
253.592178345,7364.65
253.893280029,7475.025
254.194366455,7559.375
254.49546814,7626.5
254.796524048,7670.05
255.097579956,7783.0
255.398620605,7828.575
255.699645996,7937.15
256.000640869,7915.525
256.30166626,8006.55
256.602661133,8073.95
256.903656006,8042.575
257.204589844,8078.075
257.505523682,8067.925
257.80645752,8115.35
258.107391357,8100.575
258.408294678,8096.25
258.709228516,8053.45
259.010070801,7987.1
259.310943604,7989.2
259.611846924,7930.9
259.912658691,7865.35
260.213500977,7826.6
260.514343262,7768.075
260.815124512,7684.825
261.115936279,7633.45
261.416717529,7602.775
261.717468262,7559.725
262.018218994,7493.675
262.318969727,7492.55
262.619689941,7527.625
262.920410156,7582.975
263.221130371,7606.9
263.521789551,7626.6
263.822479248,7694.425
264.123138428,7724.325
264.42376709,7736.575
264.72442627,7722.8
265.025054932,7708.075
265.325622559,7745.4
265.626251221,7704.775
265.926818848,7649.35
266.227386475,7598.05
266.527954102,7553.8
266.828460693,7540.45
267.12902832,7416.675
267.429534912,7359.425
267.730010986,7286.9
268.030517578,7200.7
268.330993652,7166.9
268.631439209,7088.275
268.931915283,7051.625
269.232299805,7001.2
269.532745361,6965.65
269.8331604,6908.0
270.133544922,6867.375
270.433929443,6838.4
270.734313965,6791.575
271.034637451,6802.175
271.334991455,6777.525
271.635314941,6801.0
271.935638428,6799.975
272.235931396,6825.775
272.536254883,6890.375
272.836486816,6922.75
273.136749268,6983.275
273.437011719,7095.25
273.737213135,7204.525
274.037445068,7286.075
274.337677002,7357.0
274.6378479,7469.675
274.938049316,7634.875
275.238220215,7705.125
275.538360596,7858.075
275.838500977,7922.9
276.138641357,8075.175
276.438751221,8124.825
276.738830566,8217.525
277.03894043,8299.3
277.338989258,8425.525
277.639038086,8519.4
277.939056396,8561.375
278.239105225,8609.675
278.539093018,8698.05
278.839141846,8740.7
279.139129639,8807.525
279.439086914,8890.275
279.739044189,8935.9
280.039001465,9045.825
280.338928223,9050.825
280.63885498,9093.1
280.938781738,9163.85
281.238647461,9211.25
281.538513184,9175.85
281.838409424,9208.025
282.138244629,9249.2
282.438079834,9220.775
282.737945557,9275.2
283.037719727,9257.45
283.337524414,9301.525
283.637298584,9286.325
283.937072754,9316.55
284.236816406,9298.825
284.536560059,9281.275
284.836303711,9313.45
285.136016846,9343.15
285.43572998,9308.925
285.735412598,9302.35
286.035064697,9314.075
286.334747314,9358.15
286.634368896,9350.75
286.933990479,9269.4
287.233642578,9179.55
287.533203125,9172.225
287.832824707,9114.375
288.132385254,8976.6
288.431945801,8820.625
288.731506348,8670.7
289.031036377,8440.675
289.330566406,8301.925
289.630065918,8310.45
289.92956543,8256.6
290.229034424,8356.825
290.528503418,8536.95
290.827941895,8713.75
291.127380371,8875.75
291.42678833,8980.45
291.726226807,9115.775
292.025604248,9153.0
292.324981689,9196.4
292.624359131,9208.575
292.923736572,9230.175
293.223052979,9241.6
293.522369385,9234.325
293.821685791,9143.2
294.12097168,9138.975
294.420257568,9082.525
294.719543457,9050.1
295.018768311,9042.3
295.318023682,8967.075
295.617248535,8873.625
295.916442871,8811.25
296.215667725,8732.05
296.514862061,8601.025
296.813995361,8321.35
297.11315918,8087.7
297.412322998,7957.7
297.711425781,7894.175
298.010559082,8080.0
298.309631348,8320.375
298.608734131,8554.9
298.907806396,8732.45
299.206848145,8890.25
299.505889893,8985.925
299.804901123,9099.35
300.103912354,9150.7
300.402954102,9242.825
300.701904297,9330.625
301.00088501,9377.55
301.299835205,9478.1
301.5987854,9483.025
301.897735596,9584.3
302.196624756,9610.275
302.495513916,9716.8
302.794403076,9733.375
303.093292236,9803.3
303.392120361,9888.3
303.690979004,9937.6
303.989837646,9973.575
304.288604736,10051.825
304.587402344,10041.35
304.886199951,10069.925
305.184967041,10122.925
305.483734131,10192.85
305.782501221,10189.875
306.081176758,10201.775
306.37991333,10243.6
306.678619385,10259.3
306.977294922,10243.4
307.275970459,10256.875
307.574645996,10285.95
307.873260498,10252.775
308.171875,10271.95
308.470489502,10270.25
308.769104004,10178.675
309.067687988,10147.575
309.366241455,10170.825
309.664794922,10137.025
309.963348389,10144.05
310.261871338,10134.475
310.560394287,10147.675
310.858856201,10136.025
311.157348633,10181.45
311.455810547,10195.5
311.754272461,10200.65
312.052703857,10275.85
312.351135254,10314.3
312.649536133,10293.4
312.947937012,10279.3
313.246307373,10309.825
313.544647217,10309.275
313.843017578,10227.575
314.141387939,10212.3
314.439697266,10246.275
314.738006592,10181.675
315.036315918,10098.5
315.334564209,9981.15
315.6328125,9897.425
315.931091309,9848.725
316.229309082,9705.55
316.527526855,9559.225
316.825744629,9512.4
317.123901367,9394.7
317.422088623,9343.375
317.720245361,9344.775
318.0184021,9344.475
318.316497803,9387.475
318.614654541,9439.35
318.912750244,9511.65
319.21081543,9505.85
319.50894165,9556.25
319.806945801,9565.075
320.104980469,9550.325
320.403045654,9511.825
320.701049805,9501.775
320.999023438,9470.9
321.297027588,9427.15
321.595001221,9392.35
321.892913818,9362.425
322.190887451,9268.05
322.488830566,9210.075
322.786712646,9171.75
323.084625244,9103.15
323.382507324,9058.825
323.680358887,8953.95
323.978210449,8864.0
324.276062012,8798.875
324.573852539,8744.425
324.871643066,8677.6
325.169464111,8619.225
325.467224121,8514.925
325.764984131,8472.025
326.062744141,8364.05
326.360473633,8278.825
326.658203125,8233.575
326.955871582,8118.925
327.253570557,8071.2
327.551239014,8007.525
327.848907471,7916.025
328.146514893,7829.775
328.444152832,7755.475
328.741790771,7689.0
329.039367676,7667.825
329.336914062,7564.325
329.634521484,7511.05
329.932067871,7456.75
330.229553223,7366.35
330.527160645,7316.35
330.824615479,7248.3
331.12210083,7150.325
331.419586182,7023.8
331.717041016,6975.75
332.014465332,6879.75
332.311920166,6853.325
332.609313965,6760.025
332.906707764,6776.0
333.204101562,6752.7
333.501495361,6755.875
333.798828125,6812.825
334.096160889,6851.0
334.39352417,6916.3
334.690795898,6974.625
334.988098145,7017.6
335.285400391,7071.025
335.582641602,7081.2
335.879882812,7117.85
336.177124023,7132.85
336.474334717,7206.175
336.77154541,7194.225
337.068725586,7208.65
337.365905762,7231.7
337.66305542,7247.275
337.960205078,7278.65
338.257324219,7277.2
338.554443359,7270.875
338.8515625,7312.375
339.148590088,7315.375
339.445648193,7293.5
339.742736816,7272.425
340.039764404,7257.1
340.336761475,7235.675
340.63381958,7189.85
340.930755615,7129.825
341.227722168,7032.7
341.524688721,6952.3
341.821624756,6918.475
342.118560791,6925.625
342.415496826,7047.85
342.712402344,7163.275
343.009246826,7306.225
343.306121826,7443.675
343.602966309,7518.2
343.899810791,7609.725
344.196624756,7705.5
344.493438721,7711.5
344.79019165,7788.8
345.086975098,7834.55
345.383758545,7875.025
345.680480957,7829.275
345.977203369,7866.675
346.273956299,7915.8
346.570617676,7904.575
346.86730957,7903.325
347.163970947,7877.575
347.460601807,7938.025
347.757232666,7975.925
348.053894043,7942.85
348.350463867,7860.9
348.647064209,7845.025
348.943634033,7824.25
349.24017334,7828.65
349.536712646,7766.65
349.833251953,7807.075
350.129760742,7773.375
350.426208496,7753.9
350.722747803,7723.525
351.019195557,7705.9
351.315612793,7663.675
351.612060547,7638.6
351.908508301,7559.975
352.204864502,7498.525
352.501281738,7456.975
352.797637939,7381.375
353.093963623,7260.0
353.390319824,7206.05
353.686645508,7131.875
353.982940674,7041.45
354.27923584,6996.65
354.575531006,6939.925
354.871765137,6942.975
355.167999268,6898.65
355.464233398,6901.9
355.760437012,6925.15
356.056640625,6910.425
356.352813721,6942.825
356.648956299,6917.475
356.945129395,6951.9
357.241271973,6927.9
357.537384033,6959.975
357.833496094,6899.325
358.129577637,6850.825
358.425628662,6855.725
358.721679688,6814.05
359.017730713,6792.175
359.313720703,6730.55
359.609710693,6699.325
359.905761719,6627.975
360.201721191,6615.6
360.497650146,6534.05
360.793609619,6518.6
361.089538574,6431.8
361.385437012,6315.475
361.681365967,6284.95
361.977233887,6230.975
362.273071289,6180.025
362.568908691,6054.375
362.864746094,5918.125
363.160552979,5761.625
363.456359863,5582.425
363.752166748,5428.575
364.047912598,5340.2
364.343658447,5290.175
364.639434814,5332.525
364.935119629,5378.4
365.230834961,5446.075
365.526550293,5472.35
365.822174072,5473.225
366.117858887,5518.925
366.413482666,5546.25
366.709075928,5585.1
367.004730225,5473.425
367.300292969,5454.625
367.595855713,5516.2
367.891448975,5386.525
368.186981201,5292.35
368.482513428,5232.025
368.778015137,5215.45
369.073547363,5167.175
369.36895752,5194.05
369.664428711,5074.25
369.95993042,4956.95
370.255310059,4879.55
370.550720215,4875.875
370.846160889,4826.05
371.14151001,4797.85
371.436859131,4770.15
371.73223877,4734.8
372.027557373,4687.725
372.322875977,4646.625
372.618164062,4608.05
372.913482666,4543.75
373.208709717,4529.725
373.503967285,4477.15
373.799194336,4434.575
374.094421387,4421.05
374.389648438,4395.85
374.684844971,4374.075
374.979980469,4442.575
375.275146484,4444.225
375.570281982,4469.275
375.865386963,4468.575
376.160522461,4392.3
376.455596924,4427.375
376.750640869,4523.35
377.045715332,4531.125
377.340759277,4581.6
377.635772705,4643.0
377.93081665,4660.625
378.225769043,4740.15
378.520751953,4809.375
378.815734863,4768.125
379.110656738,4943.35
379.405548096,5137.125
379.700500488,4945.5
379.995391846,4734.25
380.290252686,4787.275
380.585083008,4898.475
380.879974365,4945.05
381.17477417,4843.05
381.469543457,4793.075
381.764404297,4782.575
382.059143066,4802.75
382.353912354,4882.75
382.648651123,4985.825
382.943389893,4973.65
383.238067627,4770.475
383.532775879,4793.625
383.827484131,4716.575
384.12210083,4715.85
384.416778564,4657.4
384.711425781,4533.8
385.006011963,4576.575
385.300628662,4565.9
385.595184326,4634.15
385.88973999,4742.3
386.184295654,4862.975
386.478820801,4962.5
386.77331543,5069.1
387.067840576,5174.675
387.362335205,5278.55
387.656768799,5348.875
387.951202393,5408.9
388.245635986,5456.575
388.540039062,5534.5
388.834472656,5620.675
389.128875732,5506.75
389.423187256,5272.55
389.717559814,5203.125
390.011871338,5332.5
390.306182861,5332.325
390.600463867,5367.725
390.894775391,5445.975
391.189025879,5483.025
391.48324585,5442.825
391.777526855,5520.15
392.071685791,5757.75
392.365875244,5866.075
392.660064697,5938.125
392.95425415,6316.25
393.248382568,6269.25
393.542510986,5766.2
393.836608887,5575.65
394.130706787,5573.025
394.424804688,5509.425
394.71887207,5626.725
395.012878418,5604.325
395.306915283,5494.375
395.600921631,5419.925
395.894927979,5379.65
396.188903809,5434.9
396.482879639,5448.85
396.776794434,5671.175
397.070739746,5632.45
397.364654541,5669.175
397.658538818,6095.0
397.952423096,6115.9
398.246307373,6070.475
398.540100098,6675.025
398.833953857,6522.8
399.127746582,5987.975
399.421508789,5992.6
399.715301514,5913.375
400.009063721,5815.425
400.30279541,5653.5
400.596496582,5567.875
400.890258789,5761.775
401.183929443,5839.025
401.47756958,5726.6
401.771240234,5457.55
402.064880371,5463.65
402.35848999,5514.775
402.652130127,5407.475
402.945678711,5490.675
403.239257812,5414.475
403.532775879,5372.5
403.82635498,5415.775
404.119842529,5340.125
404.413360596,5318.2
404.706848145,5377.7
405.000274658,5274.175
405.293762207,5361.2
405.587188721,5441.55
405.880584717,5258.275
406.17401123,5054.525
406.467407227,4821.85
406.760742188,4840.7
407.054107666,4886.6
407.347442627,4788.3
407.640716553,4796.875
407.934051514,4852.025
408.227325439,4907.825
408.520568848,5146.275
408.813842773,5235.925
409.107086182,5034.025
409.400238037,4977.675
409.693450928,4901.05
409.986633301,5025.025
410.279754639,4944.25
410.572875977,4596.2
410.86605835,4521.65
411.159118652,4559.975
411.452209473,4555.3
411.745330811,4388.65
412.038360596,4318.95
412.331390381,4355.0
412.624420166,4421.825
412.917388916,4299.0
413.210388184,4112.925
413.503387451,4073.725
413.796295166,3944.9
414.089233398,3756.575
414.382141113,3666.925
414.675048828,3642.575
414.967926025,3695.25
415.260803223,3639.3
415.55368042,3654.65
415.846466064,3617.6
416.139282227,3697.925
416.432098389,3830.2
416.724853516,3824.975
417.017608643,3757.1
417.31036377,3772.325
417.603088379,3923.175
417.895782471,3875.7
418.188476562,3848.2
418.481140137,3917.475
418.773803711,3986.15
419.066436768,3951.975
419.359039307,4031.45
419.651641846,4029.375
419.944244385,4015.7
420.236816406,4010.5
420.529327393,4245.3
420.821899414,4322.3
421.114379883,4228.425
421.406860352,4536.275
421.699371338,4763.575
421.991821289,4723.025
422.284240723,4487.3
422.576721191,4326.825
422.869110107,4194.3
423.161468506,4156.075
423.453857422,4174.475
423.74621582,4051.775
424.038543701,3896.8
424.330871582,3855.1
424.623168945,3786.775
424.915435791,3943.0
425.207702637,3902.2
425.499969482,3827.875
425.792205811,3753.625
426.084411621,3492.125
426.376617432,3587.525
426.668762207,3649.65
426.9609375,3517.025
427.253082275,3663.8
427.545196533,4109.725
427.837310791,3792.675
428.129425049,3478.975
428.421447754,3731.75
428.713531494,3716.025
429.005554199,3713.95
429.297576904,3735.825
429.589599609,4188.375
429.881561279,4535.2
430.173522949,4299.825
430.465484619,4262.175
430.757415771,4338.625
431.049316406,4075.5
431.341186523,3812.0
431.633117676,3699.85
431.924957275,3365.3
432.21673584,3247.025
432.508636475,3412.525
432.800415039,3428.9
433.092163086,3317.675
433.383972168,3279.6
433.675689697,4078.575
433.967437744,4615.775
434.259155273,3553.35
434.550872803,3214.475
434.842498779,3279.175
435.134185791,3427.8
435.425842285,3432.875
435.717437744,3334.075
436.009063721,3141.8
436.30065918,3279.25
436.592224121,3671.5
436.883758545,3453.1
437.175323486,3162.525
437.466827393,3133.125
437.758331299,3144.025
438.049804688,3169.325
438.341247559,3241.05
438.63269043,3339.425
438.924163818,3310.225
439.215515137,3270.5
439.50692749,3158.8
439.798309326,3171.425
440.089660645,3174.225
440.380981445,3083.85
440.672332764,3083.3
440.963623047,3362.9
441.254882812,3875.0
441.546173096,4094.1
441.837402344,3802.3
442.128631592,3596.6
442.41986084,3573.5
442.711029053,3432.025
443.002197266,3495.525
443.293365479,3703.65
443.584503174,3858.125
443.875610352,3813.025
444.166717529,3534.225
444.457794189,3579.5
444.748840332,3581.775
445.039916992,3534.75
445.330932617,3636.4
445.621948242,3447.55
445.912963867,3227.025
446.203918457,3496.6
446.494812012,3748.225
446.785827637,3514.7
447.076721191,3316.325
447.367584229,3297.775
447.658447266,3277.4
447.949371338,3312.45
448.24017334,3195.55
448.530975342,3105.2
448.821838379,3291.25
449.112579346,3397.825
449.40335083,3314.475
449.694152832,3351.85
449.984863281,3355.6
450.27557373,3278.4
450.56628418,3343.275
450.856933594,3370.075
451.147583008,3186.55
451.438262939,3067.875
451.728881836,3286.0
452.019470215,3397.625
452.310089111,3185.825
452.600646973,3191.1
452.891174316,3259.325
453.181732178,3066.175
453.472229004,2928.575
453.762695312,3054.8
454.053222656,3077.1
454.343658447,2927.525
454.634063721,2850.825
454.924530029,3053.45
455.214935303,3214.35
455.505279541,3287.175
455.795715332,3129.025
456.086029053,2920.7
456.376312256,2898.375
456.666687012,2915.225
456.956939697,3040.875
457.247192383,3037.375
457.537445068,3123.9
457.827728271,3344.75
458.117919922,3248.875
458.408081055,3167.475
458.698303223,3352.55
458.988433838,3286.1
459.278564453,3095.0
459.568725586,3405.75
459.858825684,3524.975
460.148864746,3183.375
460.438995361,3145.175
460.729034424,3202.35
461.019042969,3224.425
461.309082031,3410.0
461.599060059,3307.375
461.889007568,2807.35
462.179016113,2598.325
462.468933105,2862.7
462.75881958,2980.15
463.048736572,2703.4
463.338592529,2973.275
463.628448486,3392.4
463.918365479,3062.575
464.2081604,3245.375
464.497924805,3199.65
464.787780762,3344.525
465.077514648,3683.75
465.367218018,3246.225
465.657012939,3483.425
465.946685791,3927.75
466.236358643,3484.125
466.526092529,2922.875
466.815734863,2906.775
467.105316162,2819.925
467.394927979,2854.85
467.684570312,2696.275
467.974121094,2791.125
468.263671875,2925.325
468.553222656,2664.925
468.842773438,2562.225
469.132232666,2444.4
469.42175293,2472.675
469.711212158,2442.475
470.000640869,2307.75
470.290100098,2373.175
470.579498291,2425.45
470.868835449,2412.15
471.158294678,2359.4
471.447601318,2345.475
471.736907959,2429.775
472.026275635,2493.85
472.315551758,2482.5
472.604797363,2453.55
472.894104004,2615.75
473.183319092,2718.825
473.47253418,2732.0
473.761779785,2709.825
474.05090332,2643.0
474.340087891,2582.7
474.629241943,2517.125
474.918365479,2701.1
475.207427979,3000.65
475.496551514,3032.825
475.785614014,2748.35
476.074645996,2525.7
476.363708496,2612.0
476.652679443,2774.5
476.941650391,2583.375
477.230682373,2419.35
477.519622803,2410.325
477.808502197,2589.275
478.097412109,2881.575
478.386352539,2816.8
478.675201416,2531.875
478.964050293,2399.575
479.25289917,2618.1
479.541717529,2690.225
479.830474854,2491.95
480.11932373,2895.675
480.408050537,3089.675
480.696777344,2663.35
480.985534668,2521.4
481.274200439,2638.7
481.562866211,2911.9
481.851593018,2936.1
482.140197754,2867.5
482.428833008,2679.15
482.717468262,2455.625
483.006011963,2486.85
483.294586182,2610.425
483.5831604,2670.85
483.871673584,2522.775
484.16015625,2681.9
484.448699951,2931.075
484.7371521,2988.225
485.02557373,2989.4
485.314025879,2687.9
485.602416992,4187.75
485.890777588,14699.6
486.179199219,13159.975
486.467559814,3551.725
486.755859375,2581.5
487.044219971,3016.85
487.332519531,3212.425
487.620758057,2762.575
487.908966064,2478.05
488.197265625,2240.45
488.485473633,2140.8
488.773651123,2260.95
489.061859131,2263.575
489.350006104,2206.0
489.638122559,2132.825
489.926300049,2161.675
490.214355469,2097.025
490.502441406,2060.775
490.790527344,1977.975
491.078552246,2198.5
491.366546631,2196.85
491.654602051,1927.775
491.942565918,2022.725
492.230499268,2068.6
492.518493652,2031.125
492.806396484,2064.375
493.094268799,1963.5
493.382202148,2015.525
493.670074463,2140.35
493.957885742,1970.475
494.245727539,1965.4
494.533508301,2155.175
494.821289062,2029.575
495.109100342,1847.5
495.396850586,1807.075
495.684539795,1754.6
495.972290039,1995.225
496.25994873,2376.15
496.547607422,2394.925
496.835296631,2178.05
497.122894287,1818.15
497.410522461,1735.625
497.6980896,1723.025
497.985687256,1688.7
498.273223877,1804.375
498.560760498,1897.5
498.848266602,1922.95
499.135772705,1887.6
499.423217773,1934.25
499.710693359,2052.75
499.998138428,1990.475
500.285522461,1798.975
500.572937012,1712.775
500.860290527,1774.875
501.147644043,1886.85
501.434997559,2142.2
501.722290039,1994.4
502.00958252,1730.575
502.296875,2042.475
502.584106445,2005.675
502.871337891,1817.125
503.158599854,1891.775
503.445770264,1987.9
503.732910156,1967.7
504.020141602,1756.125
504.307220459,1727.75
504.594329834,1762.75
504.881469727,1703.075
505.168518066,1775.4
505.455535889,1861.225
505.742614746,1719.3
506.029632568,1646.45
506.316589355,1852.225
506.603637695,1958.175
506.890563965,1734.975
507.177459717,1553.6
507.464385986,1455.675
507.751312256,1719.625
508.038146973,1801.325
508.325012207,1638.875
508.611877441,1707.575
508.898681641,1718.175
509.185424805,1531.6
509.472259521,1493.2
509.759002686,1583.225
510.045715332,1619.475
510.332458496,1554.55
510.619140625,1620.45
510.905761719,1534.55
511.192504883,1518.75
511.479095459,1563.65
511.765686035,1512.725
512.052307129,1418.275
512.338928223,1354.7
512.625427246,1426.05
512.91204834,1495.975
513.198486328,1475.225
513.484985352,1440.475
513.77142334,1347.1
514.057922363,1398.8
514.344299316,1392.625
514.63079834,1348.0
514.917175293,1336.05
515.203552246,1227.4
515.489868164,1202.375
515.776245117,1338.225
516.0625,1385.1
516.348815918,1290.025
516.635070801,1322.9
516.921325684,1382.825
517.207580566,1305.725
517.493774414,1205.35
517.779968262,1213.65
518.066101074,1266.125
518.352294922,1210.025
518.638366699,1208.8
518.924499512,1302.725
519.210632324,1390.05
519.496643066,1344.775
519.782714844,1230.325
520.068786621,1200.275
520.354736328,1153.775
520.640686035,1104.6
520.926757812,1163.55
521.212646484,1242.45
521.498535156,1253.125
521.784484863,1189.325
522.0703125,1122.875
522.356262207,1138.9
522.642089844,1228.4
522.927856445,1217.425
523.213684082,1203.625
523.499511719,1195.75
523.78527832,1234.3
524.070983887,1299.025
524.356750488,1270.45
524.64239502,1233.875
524.928039551,1212.3
525.213806152,1235.95
525.499389648,1227.875
525.784973145,1261.825
526.070617676,1300.8
526.356140137,1269.375
526.641723633,1287.55
526.927307129,1342.875
527.212768555,1359.175
527.498291016,1324.375
527.783752441,1327.375
528.069213867,1302.875
528.354675293,1333.075
528.640014648,1507.975
528.925476074,1586.275
529.21081543,1509.55
529.496154785,1481.275
529.781555176,1446.3
530.066833496,1458.975
530.352050781,1477.05
530.637390137,1462.35
530.922607422,1452.525
531.207824707,1453.775
531.493041992,1439.3
531.778198242,1520.35
532.063354492,1493.075
532.348571777,1427.0
532.633666992,1455.4
532.918762207,1531.525
533.203857422,1625.175
533.488891602,1659.45
533.773925781,1616.575
534.059020996,1577.25
534.343933105,1610.05
534.628967285,1584.6
534.91394043,1592.35
535.198852539,1613.25
535.483703613,1582.825
535.768676758,1514.1
536.053527832,1520.775
536.338317871,1474.725
536.62322998,1403.725
536.90802002,1374.45
537.192810059,1404.85
537.477539062,1493.525
537.762329102,1531.05
538.047058105,1573.975
538.331726074,1615.8
538.616455078,1594.05
538.901123047,1570.25
539.18572998,1618.15
539.470397949,1613.775
539.755004883,1616.3
540.039550781,1573.45
540.32409668,1519.925
540.608703613,1576.95
540.893188477,1678.325
541.17767334,1708.4
541.462158203,1689.8
541.746643066,1637.975
542.031066895,1677.7
542.315429688,1742.225
542.59979248,1723.55
542.884216309,1716.075
543.168579102,1702.325
543.452941895,1712.225
543.737243652,1780.15
544.021484375,1826.5
544.305725098,1805.725
544.590026855,1787.725
544.874267578,1804.15
545.158447266,1880.275
545.442626953,1782.7
545.726806641,1656.175
546.010925293,1701.5
546.29510498,1729.4
546.579162598,1726.05
546.863220215,1763.15
547.147277832,1844.225
547.431335449,1935.875
547.715332031,2001.65
547.999328613,2112.3
548.283325195,2139.2
548.567260742,1968.525
548.851135254,1936.025
549.135070801,1899.175
549.419006348,1787.1
549.702819824,1902.925
549.986755371,1987.275
550.270507812,1948.125
550.554321289,2000.7
550.83807373,2017.875
551.121826172,1957.0
551.405517578,1977.65
551.689331055,2106.425
551.973022461,2364.275
552.256652832,2432.775
552.540344238,2329.0
552.823974609,2301.325
553.107543945,2273.4
553.391174316,2349.375
553.674743652,2408.225
553.958251953,2412.75
554.241821289,2417.025
554.525268555,2351.925
554.808776855,2346.225
555.092285156,2564.275
555.375671387,2647.875
555.659057617,2630.275
555.942504883,2671.65
556.225891113,2709.1
556.509216309,2680.125
556.792541504,2566.575
557.075866699,2659.65
557.359130859,2684.175
557.64239502,2702.6
557.92565918,2774.4
558.208862305,2753.525
558.49206543,2680.625
558.77532959,2698.225
559.058410645,2756.6
559.341552734,2736.575
559.624694824,2804.125
559.907775879,2890.2
560.190856934,3002.95
560.473937988,3009.75
560.756896973,3054.0
561.039978027,3083.825
561.322937012,3041.45
561.605895996,3034.8
561.88885498,2991.65
562.171813965,2992.025
562.454650879,2972.275
562.737548828,3007.35
563.020446777,3088.125
563.303283691,3117.0
563.58605957,3154.45
563.868896484,3165.775
564.151672363,3214.45
564.434387207,3258.6
564.717163086,3227.375
564.99987793,3266.425
565.282531738,3343.425
565.565185547,3265.35
565.847839355,3288.95
566.130432129,3428.75
566.413085938,3395.575
566.695678711,3395.875
566.978149414,3526.05
567.260681152,3690.875
567.543273926,3772.95
567.825744629,3675.65
568.108154297,3697.675
568.390686035,3839.175
568.673095703,3963.975
568.955505371,4019.65
569.237854004,4060.95
569.520202637,4363.275
569.802490234,4580.05
570.084838867,4563.05
570.367126465,4373.05
570.649414062,4404.85
570.93170166,4758.5
571.213928223,4851.875
571.496154785,4596.075
571.778381348,4830.325
572.06048584,5117.125
572.342590332,4624.725
572.624755859,4232.675
572.906860352,4299.775
573.188903809,5045.85
573.470947266,5309.35
573.752990723,5054.325
574.03503418,5170.95
574.317016602,5578.9
574.598937988,5346.825
574.88092041,5223.875
575.162841797,5427.975
575.444763184,5012.725
575.726623535,4719.05
576.008483887,4772.3
576.290344238,5202.7
576.572143555,5431.975
576.853881836,5511.8
577.135681152,5397.65
577.417419434,5466.225
577.699157715,6415.125
577.980895996,6585.475
578.262573242,5881.3
578.544128418,5336.8
578.825866699,5275.45
579.107421875,4929.15
579.388977051,5140.075
579.670593262,5570.475
579.952148438,5394.7
580.233642578,5523.1
580.515197754,5638.95
580.796691895,5281.35
581.078125,5503.575
581.359619141,7158.325
581.640991211,7242.9
581.922363281,6249.275
582.203796387,6310.725
582.485107422,5895.375
582.766418457,5450.875
583.047790527,5297.9
583.329040527,5166.0
583.610290527,5015.1
583.891540527,5155.025
584.172790527,5499.925
584.453918457,5501.375
584.735107422,5562.725
585.016235352,6064.325
585.297363281,6010.55
585.578552246,5810.725
585.859619141,5749.525
586.140625,5494.8
586.421630859,5321.425
586.702697754,5392.875
586.983642578,5619.45
587.264648438,5801.525
587.545654297,5733.475
587.826477051,5688.4
588.107421875,5486.35
588.388305664,5504.35
588.669189453,5614.775
588.950012207,5456.1
589.230834961,5346.275
589.511657715,5446.725
589.792358398,5523.575
590.073120117,5550.325
590.353881836,5511.425
590.63458252,5523.175
590.915283203,5506.5
591.195922852,5448.1
591.4765625,5523.075
591.757202148,5565.55
592.037780762,5558.65
592.31829834,5563.25
592.598937988,5778.2
592.879394531,5990.8
593.159912109,5871.1
593.440429688,5796.95
593.720825195,5759.9
594.001281738,5735.7
594.281677246,5658.075
594.562072754,5672.275
594.842407227,5793.925
595.122802734,5819.55
595.403137207,5797.725
595.683410645,5756.35
595.963623047,5752.925
596.243896484,5710.8
596.524169922,5711.5
596.804382324,5702.25
597.084533691,5742.875
597.364746094,5770.775
597.644836426,5796.7
597.924987793,5813.7
598.205078125,5765.35
598.485107422,5792.775
598.765197754,5926.9
599.045227051,5981.35
599.325195312,5902.2
599.605224609,5831.65
599.885192871,5860.9
600.165100098,5903.3
600.445007324,5863.375
600.724914551,5836.675
601.004760742,5848.875
601.284667969,5886.925
601.56451416,5841.85
601.844238281,5838.925
602.124084473,5856.975
602.403808594,5869.025
602.683532715,5900.5
602.963256836,5895.075
603.242919922,5909.225
603.522583008,5965.425
603.802246094,5926.8
604.081848145,5902.075
604.36138916,5858.925
604.641052246,5902.725
604.920532227,5891.6
605.200073242,5897.0
605.479614258,5941.675
605.759094238,5972.7
606.038574219,5965.5
606.317932129,5910.75
606.597412109,5879.525
606.87677002,5894.325
607.15612793,5939.025
607.435546875,5951.6
607.714782715,5936.325
607.99407959,5903.4
608.273376465,5892.25
608.552612305,5925.925
608.831848145,5931.775
609.111083984,5917.9
609.390258789,5896.95
609.669433594,5888.425
609.948608398,5954.475
610.227722168,5943.7
610.506713867,5874.8
610.785888672,5902.025
611.064880371,5889.225
611.34387207,5898.475
611.622924805,5905.65
611.901916504,5911.2
612.180847168,5857.35
612.459777832,5858.025
612.738647461,5848.375
613.01751709,5816.575
613.296447754,5782.625
613.575317383,5749.475
613.854064941,5689.8
614.132873535,5605.425
614.411621094,5544.4
614.690368652,5498.95
614.969177246,5450.225
615.247802734,5369.5
615.526489258,5342.275
615.805175781,5224.25
616.08380127,5082.075
616.362365723,5013.8
616.640991211,4961.425
616.919555664,4899.2
617.198059082,5045.575
617.4765625,5307.275
617.755126953,5463.125
618.033569336,5500.225
618.311950684,5474.775
618.590454102,5472.325
618.868774414,5441.825
619.147155762,5451.975
619.425598145,5449.4
619.703857422,5463.3
619.982177734,5475.375
620.260498047,5461.4
620.538757324,5440.925
620.816955566,5407.9
621.095214844,5372.8
621.373413086,5370.35
621.651550293,5451.875
621.929748535,5490.725
622.207824707,5467.425
622.485900879,5473.375
622.764038086,5464.825
623.042053223,5513.325
623.320007324,5526.925
623.598083496,5530.25
623.876037598,5501.375
624.153991699,5508.25
624.432006836,5561.45
624.709838867,5543.8
624.987731934,5540.75
625.265563965,5529.8
625.543395996,5543.275
625.821228027,5623.225
626.098999023,5598.05
626.376831055,5670.4
626.654541016,5685.375
626.932250977,5682.575
627.209960938,5760.75
627.487670898,5765.375
627.765319824,5794.325
628.04296875,5793.375
628.320495605,5827.125
628.598083496,5803.35
628.875671387,5836.55
629.153259277,5885.5
629.430725098,5934.9
629.708251953,5907.175
629.985656738,5929.7
630.263122559,5988.025
630.540588379,6004.8
630.817932129,6046.225
631.095275879,6058.7
631.372680664,6108.7
631.649963379,6145.625
631.927246094,6223.825
632.204589844,6239.25
632.481811523,6278.275
632.759033203,6383.95
633.036254883,6379.025
633.313415527,6478.55
633.590576172,6538.15
633.867736816,6647.65
634.144836426,6729.625
634.421875,6736.75
634.698913574,6829.875
634.976013184,6870.025
635.252990723,6957.375
635.529968262,6997.05
635.807006836,7068.175
636.08392334,7058.15
636.360839844,6952.825
636.637756348,6849.125
636.914611816,6841.625
637.191467285,6809.725
637.468261719,6873.3
637.745056152,6834.7
638.021789551,6865.775
638.298583984,6875.55
638.575317383,6933.15
638.851989746,6921.825
639.12878418,6936.475
639.405395508,6918.775
639.682006836,6981.6
639.958618164,6983.725
640.235229492,6932.875
640.511779785,6992.4
640.788330078,6939.225
641.064880371,6961.2
641.341308594,6939.475
641.617797852,6965.975
641.894226074,6935.5
642.170654297,6961.275
642.44708252,6976.325
642.723388672,6954.95
642.999755859,6974.975
643.276123047,6959.85
643.552429199,6941.775
643.828674316,6952.425
644.104919434,6944.5
644.381164551,6941.15
644.657348633,6940.7
644.933532715,6922.55
645.209716797,6950.975
645.485839844,6935.725
645.761901855,6938.275
646.038024902,6900.9
646.314086914,6959.2
646.590087891,6937.05
646.866149902,6953.6
647.142150879,6890.975
647.41809082,6868.025
647.694030762,6861.7
647.969970703,6870.75
648.245788574,6912.0
648.521728516,6893.1
648.797546387,6888.25
649.073303223,6896.0
649.349182129,6875.175
649.624938965,6873.325
649.900634766,6895.4
650.176391602,6867.0
650.452087402,6869.375
650.727783203,6859.925
651.003479004,6883.05
651.279052734,6882.625
651.554626465,6834.425
651.83026123,6862.675
652.105773926,6898.325
652.381286621,6813.425
652.656860352,6839.325
652.932312012,6851.4
653.207763672,6851.775
653.483215332,6890.975
653.758605957,6885.45
654.033935547,6902.975
654.309326172,6892.625
654.584716797,6916.35
654.859985352,6893.7
655.135253906,6926.8
655.410583496,6930.725
655.685791016,7991.125
655.9609375,12421.55
656.236206055,12184.075
656.511291504,8085.65
656.786437988,7096.325
657.061645508,6945.85
657.336669922,6972.9
657.611694336,7022.25
657.886779785,7017.725
658.161804199,7056.45
658.436828613,7017.0
658.711791992,7036.05
658.986755371,7046.575
659.261657715,7049.3
659.536621094,7086.5
659.811401367,7085.95
660.086303711,7120.0
660.36114502,7098.55
660.635864258,7080.5
660.910644531,7133.325
661.185424805,7117.925
661.460205078,7137.425
661.734863281,7141.825
662.009521484,7140.8
662.284179688,7182.9
662.558776855,7179.075
662.833435059,7244.125
663.108032227,7270.375
663.382568359,7231.85
663.657043457,7278.025
663.93157959,7320.275
664.206054688,7297.05
664.48046875,7333.3
664.755004883,7377.325
665.02935791,7360.225
665.303710938,7394.7
665.578125,7417.8
665.852416992,7400.425
666.126708984,7446.9
666.401062012,7419.7
666.675292969,7478.55
666.949462891,7489.625
667.223754883,7462.175
667.497924805,7499.775
667.772094727,7539.35
668.046264648,7493.975
668.3203125,7564.425
668.594421387,7605.1
668.868469238,7604.725
669.14251709,7610.975
669.416503906,7638.575
669.690551758,7621.5
669.964477539,7642.3
670.23840332,7681.6
670.512329102,7655.475
670.786254883,7647.05
671.060058594,7728.275
671.333984375,7725.5
671.607788086,7716.675
671.881530762,7727.7
672.155334473,7784.95
672.429077148,7799.85
672.702758789,7797.275
672.97644043,7794.525
673.25012207,7812.725
673.523742676,7790.025
673.797302246,7823.475
674.070922852,7898.85
674.344482422,7882.65
674.618041992,7885.7
674.891601562,7885.25
675.165100098,7910.25
675.438476562,7890.425
675.711975098,7929.975
675.985412598,7914.775
676.258789062,7896.275
676.532165527,7970.125
676.805480957,7958.95
677.078796387,7979.375
677.352111816,8022.525
677.625366211,7986.925
677.898620605,7978.975
678.171875,8032.85
678.445007324,8059.525
678.718200684,8073.675
678.991394043,8059.025
679.264404297,8077.925
679.537536621,8094.9
679.81060791,8135.55
680.083679199,8112.975
680.356689453,8125.325
680.629699707,8113.375
680.902648926,8116.05
681.175598145,8171.45
681.448547363,8200.325
681.721435547,8146.325
681.99420166,8164.725
682.267150879,8154.1
682.539916992,8217.35
682.812744141,8203.125
683.085510254,8158.65
683.358215332,8226.95
683.63092041,8170.275
683.903625488,8230.35
684.176330566,8208.325
684.448913574,8206.0
684.721557617,8176.85
684.99420166,8262.575
685.266662598,8241.7
685.539245605,8280.325
685.811767578,8311.725
686.084289551,8321.3
686.356689453,8348.325
686.629150391,8387.825
686.901550293,8377.825
687.17401123,8389.825
687.446350098,8424.1
687.718688965,8439.675
687.990966797,8474.525
688.263305664,8494.675
688.535522461,8474.425
688.807739258,8460.85
689.079956055,8500.5
689.352172852,8527.25
689.624328613,8551.35
689.896484375,8577.2
690.168518066,8571.675
690.440612793,8608.275
690.71270752,8616.85
690.984741211,8638.3
691.256713867,8639.85
691.528747559,8655.175
691.800720215,8686.45
692.072631836,8693.85
692.344543457,8734.85
692.616394043,8732.7
692.888244629,8742.275
693.160095215,8773.15
693.431945801,8786.075
693.703674316,8750.7
693.975463867,8743.25
694.247131348,8818.025
694.518859863,8816.65
694.790588379,8844.575
695.062255859,8847.425
695.33380127,8801.725
695.60546875,8855.35
695.87701416,8844.45
696.148498535,8894.075
696.42010498,8922.425
696.691589355,8930.65
696.96307373,8931.475
697.234558105,8998.025
697.50592041,8982.675
697.777282715,8993.0
698.048706055,9014.85
698.320068359,9026.675
698.591308594,9048.5
698.862670898,9052.875
699.133972168,9088.6
699.405151367,9080.175
699.676391602,9106.725
699.947570801,9074.65
700.21875,9102.4
700.489868164,9108.3
700.761047363,9126.475
701.032104492,9188.2
701.303100586,9103.575
701.57421875,9171.875
701.845214844,9161.425
702.116149902,9183.2
702.387207031,9208.575
702.65814209,9212.4
702.928955078,9276.3
703.199951172,9209.85
703.47076416,9183.325
703.741577148,9199.325
704.012451172,9270.375
704.28314209,9279.05
704.553955078,9254.65
704.824707031,9313.225
705.095397949,9341.375
705.366027832,9347.525
705.63671875,9359.75
705.907348633,9322.9
706.17791748,9337.225
706.448486328,9367.225
706.719055176,9379.525
706.989562988,9419.3
707.260131836,9436.125
707.530517578,9444.3
707.800964355,9481.625
708.071411133,9413.475
708.341796875,9416.55
708.612182617,9365.475
708.882446289,9379.5
709.152893066,9407.075
709.423156738,9451.225
709.693359375,9407.975
709.963623047,9449.225
710.233825684,9474.625
710.503967285,9443.625
710.774169922,9419.4
711.044311523,9427.425
711.31439209,9438.325
711.584533691,9464.275
711.854553223,9452.475
712.124572754,9512.85
712.39465332,9438.025
712.664611816,9499.475
712.934509277,9547.975
713.204467773,9494.4
713.474365234,9515.475
713.74420166,9526.675
714.014099121,9526.55
714.283874512,9522.6
714.553710938,9559.65
714.823486328,9526.325
715.093200684,9533.075
715.362915039,9559.3
715.632629395,9512.625
715.902282715,9520.1
716.171875,9484.5
716.441589355,9524.25
716.711181641,9484.825
716.980712891,9534.4
717.250244141,9515.55
717.519775391,9542.425
717.78918457,9516.55
718.058654785,9578.525
718.328125,9624.9
718.597473145,9564.8
718.866882324,9577.775
719.136230469,9567.675
719.405578613,9583.45
719.674865723,9634.85
719.944152832,9587.1
720.213439941,9586.025
720.48260498,9601.975
720.75177002,9598.375
721.020996094,9628.275
721.290100098,9617.5
721.559204102,9606.15
721.828308105,9640.725
722.097351074,9641.95
722.366455078,9604.875
722.635437012,9599.125
722.904418945,9557.4
723.173400879,9601.15
723.442321777,9623.55
723.711181641,9562.7
723.980102539,9635.675
724.248962402,9628.125
724.51776123,9584.55
724.786560059,9645.35
725.055358887,9656.875
725.324035645,9633.7
725.592834473,9635.225
725.86151123,9598.475
726.130187988,9611.475
726.398803711,9591.075
726.667419434,9614.025
726.935974121,9586.35
727.204528809,9544.475
727.473083496,9572.725
727.741638184,9542.05
728.010070801,9494.55
728.278564453,9481.275
728.546936035,9499.8
728.815368652,9426.6
729.08380127,9379.075
729.352111816,9345.475
729.620361328,9277.45
729.88873291,9303.425
730.156982422,9361.825
730.425231934,9372.35
730.693481445,9343.075
730.961669922,9412.85
731.229797363,9441.8
731.49798584,9464.475
731.766113281,9507.6
732.034118652,9568.875
732.302246094,9615.5
732.570251465,9660.15
732.838256836,9699.125
733.106262207,9811.65
733.374145508,9856.15
733.642089844,9893.25
733.909973145,9944.775
734.177856445,10042.45
734.445678711,10116.8
734.713562012,10237.4
734.981323242,10208.35
735.249084473,10268.825
735.516845703,10420.6
735.784545898,10488.4
736.052185059,10546.7
736.319885254,10663.3
736.587524414,10689.7
736.855102539,10747.525
737.122619629,10893.4
737.390197754,10930.35
737.657714844,11076.95
737.925170898,11110.525
738.192749023,11219.475
738.460144043,11264.9
738.727539062,11338.05
738.994995117,11466.7
739.262329102,11524.9
739.529663086,11651.325
739.79699707,11673.325
740.06427002,11733.05
740.331481934,11830.2
740.598754883,11896.375
740.865905762,11910.65
741.133056641,12101.475
741.40032959,12070.65
741.667358398,12159.35
741.934448242,12230.475
742.201599121,12250.35
742.468566895,12337.75
742.735534668,12386.775
743.002563477,12415.75
743.26953125,12399.95
743.536437988,12488.425
743.803405762,12597.525
744.0703125,12562.075
744.337097168,12698.75
744.604003906,12588.225
744.870727539,12677.825
745.137512207,12700.9
745.40423584,12745.975
745.670959473,12706.125
745.93762207,12740.95
746.204284668,12779.975
746.470947266,12788.75
746.737548828,12769.7
747.004089355,12829.375
747.270751953,12822.375
747.53717041,12858.95
747.803710938,12783.0
748.070251465,12769.6
748.336608887,12785.35
748.603027344,12762.4
748.869445801,12747.9
749.135803223,12753.8
749.402099609,12780.0
749.668457031,12757.125
749.934753418,12715.675
750.20098877,12678.875
750.467224121,12747.15
750.733459473,12697.55
750.999572754,12655.7
751.26574707,12567.2
751.531860352,12605.25
751.797912598,12569.9
752.064025879,12509.65
752.330078125,12538.275
752.596069336,12492.95
752.862060547,12421.65
753.127990723,12466.975
753.393920898,12427.95
753.659912109,12396.425
753.925720215,12409.525
754.19152832,12354.75
754.457397461,12307.4
754.723144531,12266.65
754.988952637,12194.65
755.254699707,12238.0
755.520385742,12264.025
755.786071777,12267.325
756.051696777,12212.375
756.317382812,12155.475
756.582946777,12145.825
756.848510742,12137.075
757.114074707,12062.65
757.379577637,12080.7
757.645080566,12166.45
757.910583496,12091.15
758.175964355,12022.625
758.441345215,12006.15
758.706848145,11865.0
758.972106934,11844.1
759.237426758,11900.05
759.502807617,11905.675
759.768005371,11901.25
760.03326416,11866.1
760.298522949,11792.175
760.563659668,11812.675
760.828857422,11795.2
761.093994141,11785.1
761.359130859,11696.825
761.624206543,11667.425
761.889282227,11631.925
762.15423584,11620.0
762.419250488,11595.35
762.684265137,11536.5
762.949157715,11507.825
763.214050293,11526.625
763.479003906,11544.225
763.743835449,11498.15
764.008666992,11445.125
764.2734375,11442.0
764.538208008,11461.45
764.802978516,11511.425
765.067687988,11430.6
765.332397461,11433.875
765.597045898,11389.7
765.861694336,11362.05
766.126342773,11310.85
766.390930176,11292.725
766.655395508,11259.4
766.920043945,11237.825
767.184509277,11224.35
767.448974609,11239.075
767.713439941,11173.725
767.977783203,11135.175
768.2421875,11192.225
768.506591797,11123.725
768.770874023,11178.025
769.03515625,11157.875
769.299499512,11144.475
769.563720703,11125.475
769.827941895,11092.45
770.092163086,11063.225
770.356323242,11037.0
770.620483398,11086.7
770.88458252,11072.85
771.148681641,11066.975
771.412719727,11069.325
771.676757812,11061.4
771.940734863,10960.625
772.204711914,10965.525
772.468688965,10955.4
772.73260498,10947.825
772.996459961,10949.225
773.260314941,9781.575
773.524169922,1249.2
773.787963867,154.425
774.051696777,124.1
774.315551758,118.1
774.579223633,120.4
774.842895508,116.65
775.106567383,120.45
775.370239258,117.15
775.633789062,123.975
775.897399902,124.6
776.160949707,118.075
776.424499512,119.6
776.687988281,122.375
776.951477051,124.625
777.214904785,120.925
777.47833252,119.35
