191.299911499,101.1
191.603515625,103.925
191.907119751,97.825
192.210693359,106.925
192.514251709,98.875
192.817810059,101.45
193.121368408,103.125
193.42489624,106.525
193.728408813,100.125
194.031936646,102.075
194.33543396,94.85
194.638916016,110.825
194.94241333,98.975
195.245880127,97.55
195.549331665,96.175
195.852767944,101.1
196.156204224,207.925
196.459625244,202.375
196.763015747,205.125
197.066436768,214.75
197.369812012,205.675
197.673187256,206.75
197.9765625,203.925
198.279922485,206.9
198.583251953,201.675
198.886581421,205.675
199.18989563,213.35
199.493209839,209.775
199.79649353,198.15
200.09979248,213.45
200.403076172,209.775
200.706314087,209.4
201.009567261,208.375
201.312820435,208.95
201.616027832,197.0
201.919235229,192.9
202.222457886,196.3
202.525634766,203.425
202.828826904,196.875
203.132003784,193.85
203.435150146,197.925
203.738296509,192.275
204.041412354,195.45
204.344558716,199.825
204.647659302,199.225
204.950759888,202.175
205.253845215,199.225
205.556930542,196.05
205.859985352,197.9
206.163024902,197.95
206.466079712,200.275
206.769104004,208.9
207.072113037,201.1
207.375137329,199.9
207.678131104,202.575
207.981109619,206.425
208.284088135,204.9
208.587036133,208.225
208.889984131,207.05
209.19291687,209.825
209.495849609,208.125
209.798751831,212.9
210.101654053,209.95
210.404556274,213.65
210.707427979,212.4
211.010269165,217.05
211.31312561,217.3
211.615982056,216.525
211.918807983,217.75
212.221618652,217.525
212.524429321,212.075
212.827224731,223.225
213.130004883,221.625
213.432769775,223.65
213.735534668,223.0
214.038269043,232.475
214.341003418,226.425
214.643737793,231.525
214.946456909,235.1
215.249145508,236.35
215.551834106,237.025
215.854507446,240.375
216.157165527,239.7
216.45980835,246.05
216.762451172,245.775
217.065078735,249.075
217.36769104,250.4
217.670303345,259.05
217.972885132,259.55
218.275466919,259.675
218.578048706,256.35
218.880599976,276.225
219.183120728,282.85
219.485656738,293.475
219.788192749,313.95
220.090682983,340.925
220.393188477,378.725
220.695663452,425.9
220.998138428,471.125
221.300582886,548.075
221.603042603,602.975
221.905487061,687.275
222.207901001,778.7
222.510299683,872.725
222.812728882,994.8
223.115097046,1111.675
223.41746521,1243.15
223.719848633,1369.875
224.022171021,1499.1
224.324508667,1636.525
224.626846313,1799.475
224.929168701,1954.375
225.231460571,2114.35
225.533737183,2260.225
225.836013794,2423.025
226.138290405,2591.375
226.440536499,2736.375
226.742767334,2877.575
227.044998169,3004.95
227.347213745,3193.4
227.649429321,3331.2
227.951629639,3439.05
228.253799438,3556.025
228.555953979,3682.25
228.858123779,3793.825
229.160263062,3907.6
229.462371826,4042.075
229.764511108,4136.475
230.066619873,4217.325
230.36869812,4326.625
230.670776367,4411.425
230.972854614,4550.725
231.274902344,4652.2
231.576950073,4784.275
231.878967285,4873.675
232.180999756,5006.7
232.48298645,5153.1
232.784988403,5272.475
233.086975098,5364.55
233.388946533,5449.45
233.69090271,5611.425
233.992858887,5724.825
234.294769287,5773.475
234.596694946,5873.6
234.898605347,6004.425
235.200500488,6066.7
235.502380371,6143.275
235.804244995,6186.025
236.106109619,6206.425
236.407958984,6278.15
236.709777832,6365.575
237.011581421,6419.45
237.313400269,6424.55
237.615203857,6426.2
237.916976929,6498.625
238.21875,6519.8
238.520507812,6574.3
238.822250366,6625.35
239.12399292,6616.675
239.425704956,6678.1
239.727401733,6648.0
240.02911377,6695.25
240.330780029,6690.95
240.632446289,6709.675
240.93409729,6728.475
241.23576355,6757.375
241.537384033,6793.15
241.839004517,6804.425
242.140594482,6798.725
242.442199707,6848.6
242.743774414,6840.875
243.045333862,6842.725
243.346923828,6856.8
243.648452759,6878.925
243.949966431,6855.6
244.251495361,6894.025
244.552993774,6831.525
244.854492188,6806.85
245.155975342,6797.4
245.457443237,6771.225
245.758880615,6740.625
246.060333252,6679.75
246.36177063,6642.75
246.66317749,6579.425
246.964569092,6537.8
247.265945435,6462.675
247.567337036,6437.475
247.86869812,6408.975
248.170059204,6376.825
248.471389771,6366.3
248.772705078,6318.25
249.074035645,6346.4
249.375335693,6307.6
249.676620483,6317.0
249.977890015,6319.4
250.279159546,6388.3
250.58039856,6377.575
250.881637573,6400.175
251.182876587,6426.1
251.484069824,6466.45
251.785263062,6513.075
252.086456299,6579.85
252.387619019,6593.925
252.688781738,6591.35
252.989929199,6662.175
253.291061401,6708.6
253.592178345,6760.15
253.893280029,6817.075
254.194366455,6826.5
254.49546814,6865.775
254.796524048,6855.8
255.097579956,6902.525
255.398620605,6889.925
255.699645996,6926.875
256.000640869,6935.15
256.30166626,6934.4
256.602661133,6945.8
256.903656006,6910.65
257.204589844,6917.625
257.505523682,6882.275
257.80645752,6917.45
258.107391357,6851.675
258.408294678,6837.5
258.709228516,6783.7
259.010070801,6731.925
259.310943604,6719.275
259.611846924,6677.775
259.912658691,6610.075
260.213500977,6560.15
260.514343262,6538.1
260.815124512,6430.1
261.115936279,6388.375
261.416717529,6361.725
261.717468262,6345.775
262.018218994,6295.9
262.318969727,6268.125
262.619689941,6340.825
262.920410156,6368.875
263.221130371,6413.375
263.521789551,6441.8
263.822479248,6470.175
264.123138428,6525.575
264.42376709,6549.15
264.72442627,6534.1
265.025054932,6581.425
265.325622559,6587.5
265.626251221,6586.75
265.926818848,6540.275
266.227386475,6495.925
266.527954102,6482.95
266.828460693,6515.675
267.12902832,6388.675
267.429534912,6343.325
267.730010986,6294.925
268.030517578,6274.275
268.330993652,6260.375
268.631439209,6203.525
268.931915283,6199.95
269.232299805,6151.9
269.532745361,6116.425
269.8331604,6069.1
270.133544922,6067.025
270.433929443,6061.65
270.734313965,6062.5
271.034637451,6074.75
271.334991455,6051.375
271.635314941,6085.5
271.935638428,6111.7
272.235931396,6176.4
272.536254883,6207.85
272.836486816,6277.675
273.136749268,6348.4
273.437011719,6483.35
273.737213135,6563.7
274.037445068,6664.725
274.337677002,6766.0
274.6378479,6866.5
274.938049316,7031.35
275.238220215,7138.1
275.538360596,7276.275
275.838500977,7337.375
276.138641357,7494.9
276.438751221,7559.6
276.738830566,7661.575
277.03894043,7732.975
277.338989258,7878.8
277.639038086,7954.175
277.939056396,8028.675
278.239105225,8073.95
278.539093018,8198.9
278.839141846,8244.225
279.139129639,8339.25
279.439086914,8406.725
279.739044189,8469.5
280.039001465,8576.55
280.338928223,8600.375
280.63885498,8652.875
280.938781738,8731.7
281.238647461,8748.75
281.538513184,8758.775
281.838409424,8799.0
282.138244629,8848.775
282.438079834,8870.575
282.737945557,8901.65
283.037719727,8896.375
283.337524414,8944.95
283.637298584,8944.725
283.937072754,8936.6
284.236816406,8978.5
284.536560059,8964.4
284.836303711,8968.7
285.136016846,9042.875
285.43572998,9031.3
285.735412598,8998.25
286.035064697,9043.075
286.334747314,9094.125
286.634368896,9038.6
286.933990479,8995.45
287.233642578,8938.925
287.533203125,8916.6
287.832824707,8850.325
288.132385254,8740.25
288.431945801,8577.2
288.731506348,8429.975
289.031036377,8227.75
289.330566406,8095.85
289.630065918,8090.8
289.92956543,8048.125
290.229034424,8162.875
290.528503418,8331.475
290.827941895,8527.95
291.127380371,8671.525
291.42678833,8787.95
291.726226807,8933.975
292.025604248,8923.45
292.324981689,8974.45
292.624359131,8996.35
292.923736572,9001.325
293.223052979,9017.9
293.522369385,9003.975
293.821685791,8953.5
294.12097168,8911.85
294.420257568,8906.275
294.719543457,8863.575
295.018768311,8864.55
295.318023682,8757.5
295.617248535,8678.95
295.916442871,8633.95
296.215667725,8553.675
296.514862061,8416.825
296.813995361,8153.875
297.11315918,7928.875
297.412322998,7777.025
297.711425781,7762.95
298.010559082,7918.025
298.309631348,8157.925
298.608734131,8371.875
298.907806396,8573.55
299.206848145,8731.825
299.505889893,8803.625
299.804901123,8939.9
300.103912354,9009.175
300.402954102,9076.375
300.701904297,9128.7
301.00088501,9211.55
301.299835205,9283.125
301.5987854,9328.85
301.897735596,9414.275
302.196624756,9461.575
302.495513916,9512.8
302.794403076,9534.775
303.093292236,9605.525
303.392120361,9677.175
303.690979004,9747.5
303.989837646,9817.15
304.288604736,9855.425
304.587402344,9835.65
304.886199951,9881.5
305.184967041,9944.375
305.483734131,9993.575
305.782501221,10004.95
306.081176758,10008.25
306.37991333,10054.05
306.678619385,10090.3
306.977294922,10046.95
307.275970459,10089.2
307.574645996,10095.025
307.873260498,10081.15
308.171875,10070.7
308.470489502,10057.525
308.769104004,10005.4
309.067687988,9995.95
309.366241455,10007.15
309.664794922,9951.6
309.963348389,9956.025
310.261871338,9967.825
310.560394287,9964.875
310.858856201,9974.9
311.157348633,9999.85
311.455810547,10004.05
311.754272461,10033.45
312.052703857,10121.875
312.351135254,10119.95
312.649536133,10127.975
312.947937012,10100.175
313.246307373,10136.55
313.544647217,10125.7
313.843017578,10058.55
314.141387939,10040.925
314.439697266,10097.6
314.738006592,9978.55
315.036315918,9891.9
315.334564209,9792.0
315.6328125,9764.55
315.931091309,9668.875
316.229309082,9531.7
316.527526855,9400.625
316.825744629,9355.725
317.123901367,9223.975
317.422088623,9210.775
317.720245361,9178.925
318.0184021,9194.725
318.316497803,9257.0
318.614654541,9279.775
318.912750244,9372.75
319.21081543,9363.425
319.50894165,9382.15
319.806945801,9422.65
320.104980469,9383.875
320.403045654,9405.275
320.701049805,9339.225
320.999023438,9322.6
321.297027588,9269.5
321.595001221,9257.975
321.892913818,9229.85
322.190887451,9121.1
322.488830566,9078.425
322.786712646,9015.7
323.084625244,8937.775
323.382507324,8902.5
323.680358887,8806.675
323.978210449,8709.6
324.276062012,8659.0
324.573852539,8629.1
324.871643066,8522.175
325.169464111,8432.35
325.467224121,8412.075
325.764984131,8310.725
326.062744141,8237.675
326.360473633,8160.65
326.658203125,8110.95
326.955871582,7989.275
327.253570557,7915.175
327.551239014,7874.175
327.848907471,7784.875
328.146514893,7702.45
328.444152832,7642.75
328.741790771,7592.6
329.039367676,7531.2
329.336914062,7449.35
329.634521484,7385.475
329.932067871,7350.525
330.229553223,7246.675
330.527160645,7181.725
330.824615479,7141.0
331.12210083,7054.775
331.419586182,6909.975
331.717041016,6867.0
332.014465332,6768.175
332.311920166,6743.8
332.609313965,6673.625
332.906707764,6675.225
333.204101562,6647.975
333.501495361,6668.95
333.798828125,6720.725
334.096160889,6749.175
334.39352417,6809.95
334.690795898,6867.875
334.988098145,6923.225
335.285400391,6963.125
335.582641602,6964.2
335.879882812,7011.95
336.177124023,7020.625
336.474334717,7119.325
336.77154541,7056.025
337.068725586,7123.85
337.365905762,7128.525
337.66305542,7140.45
337.960205078,7184.1
338.257324219,7173.8
338.554443359,7178.8
338.8515625,7181.825
339.148590088,7192.825
339.445648193,7198.5
339.742736816,7158.725
340.039764404,7159.875
340.336761475,7110.7
340.63381958,7065.7
340.930755615,7017.75
341.227722168,6945.5
341.524688721,6837.7
341.821624756,6814.875
342.118560791,6840.675
342.415496826,6925.025
342.712402344,7058.55
343.009246826,7216.925
343.306121826,7342.675
343.602966309,7392.225
343.899810791,7496.1
344.196624756,7587.375
344.493438721,7602.75
344.79019165,7660.475
345.086975098,7727.4
345.383758545,7780.775
345.680480957,7727.075
345.977203369,7751.85
346.273956299,7823.75
346.570617676,7819.15
346.86730957,7832.55
347.163970947,7811.225
347.460601807,7832.575
347.757232666,7841.45
348.053894043,7821.75
348.350463867,7754.825
348.647064209,7732.125
348.943634033,7726.225
349.24017334,7739.625
349.536712646,7659.8
349.833251953,7667.65
350.129760742,7656.625
350.426208496,7632.625
350.722747803,7617.75
351.019195557,7586.125
351.315612793,7553.475
351.612060547,7492.375
351.908508301,7446.625
352.204864502,7378.4
352.501281738,7339.3
352.797637939,7286.075
353.093963623,7164.025
353.390319824,7103.95
353.686645508,7017.475
353.982940674,6936.125
354.27923584,6895.75
354.575531006,6826.475
354.871765137,6813.0
355.167999268,6794.275
355.464233398,6790.175
355.760437012,6780.65
356.056640625,6785.825
356.352813721,6796.225
356.648956299,6805.4
356.945129395,6821.725
357.241271973,6811.3
357.537384033,6842.55
357.833496094,6773.9
358.129577637,6780.275
358.425628662,6730.35
358.721679688,6700.475
359.017730713,6678.675
359.313720703,6639.05
359.609710693,6609.925
359.905761719,6547.1
360.201721191,6473.65
360.497650146,6430.35
360.793609619,6372.45
361.089538574,6297.65
361.385437012,6221.825
361.681365967,6160.375
361.977233887,6122.4
362.273071289,6057.65
362.568908691,5917.05
362.864746094,5797.7
363.160552979,5650.85
363.456359863,5463.75
363.752166748,5304.375
364.047912598,5221.05
364.343658447,5174.475
364.639434814,5238.775
364.935119629,5245.3
365.230834961,5329.925
365.526550293,5357.3
365.822174072,5400.25
366.117858887,5390.35
366.413482666,5422.225
366.709075928,5464.35
367.004730225,5354.075
367.300292969,5350.6
367.595855713,5387.9
367.891448975,5289.175
368.186981201,5164.375
368.482513428,5120.4
368.778015137,5121.425
369.073547363,5041.675
369.36895752,5083.7
369.664428711,4952.85
369.95993042,4851.95
370.255310059,4785.925
370.550720215,4773.85
370.846160889,4732.475
371.14151001,4669.25
371.436859131,4653.1
371.73223877,4627.5
372.027557373,4592.525
372.322875977,4527.65
372.618164062,4499.775
372.913482666,4445.125
373.208709717,4429.75
373.503967285,4373.625
373.799194336,4324.775
374.094421387,4320.65
374.389648438,4285.25
374.684844971,4277.525
374.979980469,4324.75
375.275146484,4318.85
375.570281982,4363.45
375.865386963,4355.25
376.160522461,4303.075
376.455596924,4320.175
376.750640869,4395.075
377.045715332,4409.35
377.340759277,4455.175
377.635772705,4505.675
377.93081665,4565.3
378.225769043,4625.325
378.520751953,4671.425
378.815734863,4634.85
379.110656738,4808.925
379.405548096,4982.55
379.700500488,4838.25
379.995391846,4596.35
380.290252686,4651.55
380.585083008,4755.8
380.879974365,4791.075
381.17477417,4709.7
381.469543457,4646.1
381.764404297,4629.85
382.059143066,4672.325
382.353912354,4750.8
382.648651123,4859.725
382.943389893,4834.475
383.238067627,4642.075
383.532775879,4644.025
383.827484131,4573.95
384.12210083,4577.3
384.416778564,4522.0
384.711425781,4420.8
385.006011963,4461.5
385.300628662,4419.95
385.595184326,4516.8
385.88973999,4610.175
386.184295654,4727.45
386.478820801,4796.075
386.77331543,4921.45
387.067840576,5012.0
387.362335205,5124.025
387.656768799,5198.55
387.951202393,5218.4
388.245635986,5290.825
388.540039062,5387.275
388.834472656,5462.4
389.128875732,5327.325
389.423187256,5101.5
389.717559814,5014.025
390.011871338,5150.55
390.306182861,5198.725
390.600463867,5199.275
390.894775391,5280.825
391.189025879,5306.5
391.48324585,5306.65
391.777526855,5353.6
392.071685791,5571.2
392.365875244,5695.625
392.660064697,5736.7
392.95425415,6112.475
393.248382568,6081.625
393.542510986,5595.35
393.836608887,5387.4
394.130706787,5401.5
394.424804688,5327.3
394.71887207,5474.0
395.012878418,5443.875
395.306915283,5327.45
395.600921631,5266.95
395.894927979,5192.325
396.188903809,5268.925
396.482879639,5274.575
396.776794434,5493.775
397.070739746,5455.55
397.364654541,5480.275
397.658538818,5910.125
397.952423096,5934.925
398.246307373,5888.925
398.540100098,6444.95
398.833953857,6321.975
399.127746582,5792.15
399.421508789,5793.875
399.715301514,5744.55
400.009063721,5663.8
400.30279541,5484.675
400.596496582,5387.375
400.890258789,5560.1
401.183929443,5659.6
401.47756958,5541.675
401.771240234,5284.75
402.064880371,5296.05
402.35848999,5352.9
402.652130127,5240.925
402.945678711,5328.275
403.239257812,5251.9
403.532775879,5202.575
403.82635498,5267.65
404.119842529,5155.05
404.413360596,5148.475
404.706848145,5207.6
405.000274658,5124.575
405.293762207,5219.7
405.587188721,5273.825
405.880584717,5089.475
406.17401123,4904.175
406.467407227,4685.2
406.760742188,4692.0
407.054107666,4735.975
407.347442627,4646.65
407.640716553,4650.625
407.934051514,4702.1
408.227325439,4771.15
408.520568848,5008.25
408.813842773,5097.775
409.107086182,4882.825
409.400238037,4837.275
409.693450928,4758.75
409.986633301,4875.95
410.279754639,4803.925
410.572875977,4470.45
410.86605835,4383.85
411.159118652,4422.9
411.452209473,4435.425
411.745330811,4270.725
412.038360596,4198.375
412.331390381,4227.15
412.624420166,4279.525
412.917388916,4182.575
413.210388184,3988.825
413.503387451,3957.8
413.796295166,3845.75
414.089233398,3652.825
414.382141113,3569.175
414.675048828,3538.3
414.967926025,3581.925
415.260803223,3539.125
415.55368042,3552.025
415.846466064,3514.675
416.139282227,3604.675
416.432098389,3726.475
416.724853516,3717.5
417.017608643,3651.05
417.31036377,3680.3
417.603088379,3820.325
417.895782471,3783.575
418.188476562,3734.225
418.481140137,3823.875
418.773803711,3887.125
419.066436768,3853.0
419.359039307,3943.35
419.651641846,3923.125
419.944244385,3943.375
420.236816406,3885.425
420.529327393,4128.85
420.821899414,4203.275
421.114379883,4139.0
421.406860352,4429.35
421.699371338,4642.25
421.991821289,4589.375
422.284240723,4391.45
422.576721191,4237.9
422.869110107,4096.25
423.161468506,4039.625
423.453857422,4076.825
423.74621582,3947.575
424.038543701,3800.675
424.330871582,3758.275
424.623168945,3699.675
424.915435791,3860.05
425.207702637,3800.85
425.499969482,3747.375
425.792205811,3668.475
426.084411621,3402.7
426.376617432,3502.625
426.668762207,3578.625
426.9609375,3440.875
427.253082275,3564.2
427.545196533,4021.625
427.837310791,3718.25
428.129425049,3400.625
428.421447754,3637.675
428.713531494,3654.3
429.005554199,3632.5
429.297576904,3624.975
429.589599609,4092.775
429.881561279,4424.275
430.173522949,4218.875
430.465484619,4164.05
430.757415771,4236.05
431.049316406,3985.5
431.341186523,3739.375
431.633117676,3624.975
431.924957275,3305.95
432.21673584,3191.675
432.508636475,3337.7
432.800415039,3361.7
433.092163086,3245.45
433.383972168,3214.475
433.675689697,3991.575
433.967437744,4509.15
434.259155273,3469.875
434.550872803,3148.275
434.842498779,3198.05
435.134185791,3353.8
435.425842285,3372.725
435.717437744,3291.6
436.009063721,3064.575
436.30065918,3214.275
436.592224121,3593.25
436.883758545,3379.925
437.175323486,3117.775
437.466827393,3076.675
437.758331299,3100.975
438.049804688,3114.375
438.341247559,3182.35
438.63269043,3272.8
438.924163818,3242.925
439.215515137,3204.05
439.50692749,3099.875
439.798309326,3101.625
440.089660645,3122.325
440.380981445,3015.0
440.672332764,3005.75
440.963623047,3293.15
441.254882812,3814.55
441.546173096,4004.125
441.837402344,3723.65
442.128631592,3522.75
442.41986084,3493.825
442.711029053,3348.9
443.002197266,3452.1
443.293365479,3642.9
443.584503174,3766.85
443.875610352,3746.025
444.166717529,3460.55
444.457794189,3507.75
444.748840332,3506.525
445.039916992,3453.025
445.330932617,3566.3
445.621948242,3391.75
445.912963867,3184.275
446.203918457,3421.3
446.494812012,3660.025
446.785827637,3462.725
447.076721191,3270.775
447.367584229,3233.425
447.658447266,3207.9
447.949371338,3273.625
448.24017334,3135.5
448.530975342,3063.05
448.821838379,3234.3
449.112579346,3318.7
449.40335083,3233.8
449.694152832,3275.825
449.984863281,3282.5
450.27557373,3206.475
450.56628418,3269.25
450.856933594,3283.25
451.147583008,3130.35
451.438262939,3004.825
451.728881836,3224.9
452.019470215,3331.225
452.310089111,3112.15
452.600646973,3147.5
452.891174316,3193.125
453.181732178,3004.8
453.472229004,2880.925
453.762695312,2982.45
454.053222656,3012.975
454.343658447,2875.95
454.634063721,2805.125
454.924530029,3000.8
455.214935303,3154.425
455.505279541,3217.9
455.795715332,3085.4
456.086029053,2860.425
456.376312256,2850.05
456.666687012,2890.975
456.956939697,2979.875
457.247192383,2981.75
457.537445068,3073.175
457.827728271,3274.375
458.117919922,3195.8
458.408081055,3107.975
458.698303223,3295.575
458.988433838,3229.75
459.278564453,3043.7
459.568725586,3349.75
459.858825684,3472.225
460.148864746,3121.725
460.438995361,3093.075
460.729034424,3159.025
461.019042969,3143.675
461.309082031,3381.025
461.599060059,3245.125
461.889007568,2761.725
462.179016113,2555.1
462.468933105,2803.0
462.75881958,2931.0
463.048736572,2656.725
463.338592529,2933.35
463.628448486,3329.0
463.918365479,3002.65
464.2081604,3187.95
464.497924805,3153.05
464.787780762,3295.05
465.077514648,3622.6
465.367218018,3193.6
465.657012939,3420.875
465.946685791,3868.475
466.236358643,3423.375
466.526092529,2849.125
466.815734863,2866.875
467.105316162,2767.75
467.394927979,2800.2
467.684570312,2659.25
467.974121094,2753.15
468.263671875,2862.05
468.553222656,2624.075
468.842773438,2523.875
469.132232666,2396.575
469.42175293,2432.825
469.711212158,2398.75
470.000640869,2267.25
470.290100098,2323.275
470.579498291,2378.6
470.868835449,2375.55
471.158294678,2329.35
471.447601318,2311.9
471.736907959,2390.1
472.026275635,2465.675
472.315551758,2437.175
472.604797363,2428.575
472.894104004,2576.65
473.183319092,2703.3
473.47253418,2675.775
473.761779785,2665.125
474.05090332,2596.025
474.340087891,2549.45
474.629241943,2477.3
474.918365479,2654.525
475.207427979,2966.025
475.496551514,2989.725
475.785614014,2695.95
476.074645996,2475.325
476.363708496,2583.275
476.652679443,2735.2
476.941650391,2548.6
477.230682373,2379.75
477.519622803,2369.675
477.808502197,2533.65
478.097412109,2836.45
478.386352539,2784.775
478.675201416,2487.875
478.964050293,2373.275
479.25289917,2574.325
479.541717529,2649.075
479.830474854,2472.4
480.11932373,2857.125
480.408050537,3030.375
480.696777344,2620.125
480.985534668,2487.675
481.274200439,2591.45
481.562866211,2849.725
481.851593018,2877.775
482.140197754,2807.375
482.428833008,2643.2
482.717468262,2425.85
483.006011963,2456.0
483.294586182,2584.975
483.5831604,2628.775
483.871673584,2480.675
484.16015625,2634.75
484.448699951,2884.1
484.7371521,2943.4
485.02557373,2936.375
485.314025879,2654.625
485.602416992,4115.3
485.890777588,14494.7
486.179199219,13016.575
486.467559814,3507.05
486.755859375,2543.3
487.044219971,2969.525
487.332519531,3176.75
487.620758057,2705.475
487.908966064,2452.75
488.197265625,2222.8
488.485473633,2108.125
488.773651123,2253.425
489.061859131,2236.025
489.350006104,2175.225
489.638122559,2123.025
489.926300049,2133.725
490.214355469,2095.375
490.502441406,2033.175
490.790527344,1946.175
491.078552246,2156.625
491.366546631,2172.625
491.654602051,1906.325
491.942565918,1989.7
492.230499268,2026.525
492.518493652,1999.25
492.806396484,2046.45
493.094268799,1930.05
493.382202148,1983.0
493.670074463,2112.05
493.957885742,1946.525
494.245727539,1947.575
494.533508301,2126.65
494.821289062,2004.95
495.109100342,1835.525
495.396850586,1781.925
495.684539795,1726.8
495.972290039,1969.9
496.25994873,2344.5
496.547607422,2352.5
496.835296631,2160.0
497.122894287,1798.85
497.410522461,1712.35
497.6980896,1709.8
497.985687256,1677.45
498.273223877,1793.775
498.560760498,1879.2
498.848266602,1888.725
499.135772705,1876.55
499.423217773,1916.325
499.710693359,2030.7
499.998138428,1956.4
500.285522461,1769.325
500.572937012,1686.425
500.860290527,1754.95
501.147644043,1861.175
501.434997559,2121.2
501.722290039,1964.925
502.00958252,1707.1
502.296875,2011.075
502.584106445,1987.425
502.871337891,1779.7
503.158599854,1867.15
503.445770264,1965.2
503.732910156,1940.55
504.020141602,1726.15
504.307220459,1707.95
504.594329834,1739.725
504.881469727,1668.35
505.168518066,1754.925
505.455535889,1828.475
505.742614746,1693.125
506.029632568,1617.375
506.316589355,1833.7
506.603637695,1933.65
506.890563965,1720.275
507.177459717,1534.15
507.464385986,1434.95
507.751312256,1690.225
508.038146973,1785.575
508.325012207,1626.775
508.611877441,1691.175
508.898681641,1692.2
509.185424805,1515.8
509.472259521,1480.275
509.759002686,1570.425
510.045715332,1598.55
510.332458496,1532.6
510.619140625,1599.95
510.905761719,1513.875
511.192504883,1496.85
511.479095459,1545.275
511.765686035,1497.7
512.052307129,1407.625
512.338928223,1348.45
512.625427246,1397.625
512.91204834,1477.325
513.198486328,1456.0
513.484985352,1414.1
513.77142334,1328.3
514.057922363,1376.85
514.344299316,1378.625
514.63079834,1330.725
514.917175293,1323.75
515.203552246,1210.675
515.489868164,1193.875
515.776245117,1320.85
516.0625,1374.075
516.348815918,1270.15
516.635070801,1310.725
516.921325684,1372.975
517.207580566,1298.025
517.493774414,1186.1
517.779968262,1207.775
518.066101074,1240.475
518.352294922,1188.075
518.638366699,1198.125
518.924499512,1284.675
519.210632324,1374.35
519.496643066,1328.9
519.782714844,1221.975
520.068786621,1180.925
520.354736328,1131.65
520.640686035,1094.075
520.926757812,1143.275
521.212646484,1220.1
521.498535156,1241.5
521.784484863,1177.7
522.0703125,1103.75
522.356262207,1122.95
522.642089844,1203.575
522.927856445,1203.825
523.213684082,1184.0
523.499511719,1176.325
523.78527832,1219.725
524.070983887,1274.55
524.356750488,1257.7
524.64239502,1209.175
524.928039551,1206.5
525.213806152,1224.75
525.499389648,1218.375
525.784973145,1243.125
526.070617676,1288.1
526.356140137,1248.175
526.641723633,1252.15
526.927307129,1324.8
527.212768555,1325.85
527.498291016,1317.0
527.783752441,1313.575
528.069213867,1292.025
528.354675293,1309.65
528.640014648,1498.65
528.925476074,1560.025
529.21081543,1489.275
529.496154785,1454.7
529.781555176,1414.65
530.066833496,1435.3
530.352050781,1454.3
530.637390137,1436.875
530.922607422,1439.3
531.207824707,1438.45
531.493041992,1407.9
531.778198242,1491.55
532.063354492,1478.625
532.348571777,1414.15
532.633666992,1434.05
532.918762207,1515.475
533.203857422,1610.1
533.488891602,1641.025
533.773925781,1572.55
534.059020996,1554.225
534.343933105,1592.725
534.628967285,1555.7
534.91394043,1579.775
535.198852539,1595.95
535.483703613,1561.625
535.768676758,1501.2
536.053527832,1499.675
536.338317871,1454.975
536.62322998,1387.5
536.90802002,1361.325
537.192810059,1390.65
537.477539062,1469.75
537.762329102,1522.625
538.047058105,1558.6
538.331726074,1591.925
538.616455078,1581.05
538.901123047,1553.35
539.18572998,1603.75
539.470397949,1603.3
539.755004883,1597.875
540.039550781,1547.375
540.32409668,1504.275
540.608703613,1546.05
540.893188477,1643.3
541.17767334,1671.0
541.462158203,1669.675
541.746643066,1616.575
542.031066895,1658.875
542.315429688,1710.875
542.59979248,1700.9
542.884216309,1688.95
543.168579102,1679.95
543.452941895,1683.225
543.737243652,1751.2
544.021484375,1804.3
544.305725098,1786.1
544.590026855,1753.675
544.874267578,1779.675
545.158447266,1849.5
545.442626953,1761.875
545.726806641,1638.6
546.010925293,1668.575
546.29510498,1712.175
546.579162598,1702.775
546.863220215,1746.775
547.147277832,1804.875
547.431335449,1899.125
547.715332031,1978.125
547.999328613,2101.325
548.283325195,2092.275
548.567260742,1931.0
548.851135254,1902.025
549.135070801,1876.675
549.419006348,1773.125
549.702819824,1880.925
549.986755371,1959.15
550.270507812,1902.55
550.554321289,1970.375
550.83807373,1988.425
551.121826172,1929.625
551.405517578,1956.6
551.689331055,2073.9
551.973022461,2310.475
552.256652832,2385.775
552.540344238,2282.3
552.823974609,2261.825
553.107543945,2239.7
553.391174316,2304.4
553.674743652,2369.85
553.958251953,2381.1
554.241821289,2385.55
554.525268555,2309.1
554.808776855,2314.725
555.092285156,2527.7
555.375671387,2602.7
555.659057617,2586.275
555.942504883,2631.45
556.225891113,2673.325
556.509216309,2634.125
556.792541504,2538.15
557.075866699,2623.175
557.359130859,2653.825
557.64239502,2646.025
557.92565918,2738.725
558.208862305,2712.75
558.49206543,2643.125
558.77532959,2671.55
559.058410645,2712.2
559.341552734,2684.925
559.624694824,2753.3
559.907775879,2826.075
560.190856934,2971.2
560.473937988,2954.75
560.756896973,2993.55
561.039978027,3049.575
561.322937012,2993.45
561.605895996,2986.25
561.88885498,2936.8
562.171813965,2938.0
562.454650879,2938.075
562.737548828,2974.45
563.020446777,3040.55
563.303283691,3074.4
563.58605957,3105.9
563.868896484,3126.825
564.151672363,3183.8
564.434387207,3208.375
564.717163086,3194.4
564.99987793,3226.675
565.282531738,3289.35
565.565185547,3211.4
565.847839355,3229.75
566.130432129,3364.775
566.413085938,3318.575
566.695678711,3344.85
566.978149414,3481.875
567.260681152,3621.625
567.543273926,3716.1
567.825744629,3601.55
568.108154297,3629.925
568.390686035,3782.45
568.673095703,3903.625
568.955505371,3952.7
569.237854004,3980.6
569.520202637,4267.925
569.802490234,4517.0
570.084838867,4492.225
570.367126465,4305.6
570.649414062,4322.575
570.93170166,4695.325
571.213928223,4771.925
571.496154785,4520.125
571.778381348,4748.15
572.06048584,5032.225
572.342590332,4535.675
572.624755859,4170.975
572.906860352,4236.15
573.188903809,4962.4
573.470947266,5226.8
573.752990723,4969.65
574.03503418,5073.725
574.317016602,5516.75
574.598937988,5266.3
574.88092041,5144.825
575.162841797,5328.875
575.444763184,4932.95
575.726623535,4667.05
576.008483887,4691.55
576.290344238,5146.125
576.572143555,5371.775
576.853881836,5425.325
577.135681152,5297.7
577.417419434,5375.575
577.699157715,6315.25
577.980895996,6475.425
578.262573242,5783.3
578.544128418,5267.35
578.825866699,5174.825
579.107421875,4871.875
579.388977051,5041.625
579.670593262,5474.475
579.952148438,5289.6
580.233642578,5394.125
580.515197754,5513.85
580.796691895,5196.7
581.078125,5392.0
581.359619141,7012.025
581.640991211,7114.2
581.922363281,6127.075
582.203796387,6197.475
582.485107422,5792.575
582.766418457,5378.575
583.047790527,5202.175
583.329040527,5091.525
583.610290527,4941.05
583.891540527,5051.475
584.172790527,5378.725
584.453918457,5400.925
584.735107422,5483.55
585.016235352,5947.6
585.297363281,5924.875
585.578552246,5706.725
585.859619141,5630.7
586.140625,5400.075
586.421630859,5245.25
586.702697754,5312.175
586.983642578,5541.45
587.264648438,5712.925
587.545654297,5645.525
587.826477051,5574.0
588.107421875,5387.475
588.388305664,5393.85
588.669189453,5510.975
588.950012207,5365.35
589.230834961,5269.5
589.511657715,5336.9
589.792358398,5434.475
590.073120117,5445.05
590.353881836,5400.3
590.63458252,5411.925
590.915283203,5392.875
591.195922852,5375.825
591.4765625,5420.05
591.757202148,5452.775
592.037780762,5455.2
592.31829834,5457.6
592.598937988,5668.475
592.879394531,5832.825
593.159912109,5753.675
593.440429688,5688.875
593.720825195,5667.75
594.001281738,5646.95
594.281677246,5554.9
594.562072754,5579.575
594.842407227,5679.525
595.122802734,5712.575
595.403137207,5704.6
595.683410645,5675.675
595.963623047,5667.475
596.243896484,5612.5
596.524169922,5627.45
596.804382324,5599.85
597.084533691,5646.625
597.364746094,5682.525
597.644836426,5721.025
597.924987793,5681.65
598.205078125,5645.025
598.485107422,5674.65
598.765197754,5797.85
599.045227051,5861.975
599.325195312,5772.375
599.605224609,5707.15
599.885192871,5768.225
600.165100098,5795.625
600.445007324,5762.125
600.724914551,5740.725
601.004760742,5740.175
601.284667969,5783.975
601.56451416,5736.125
601.844238281,5738.2
602.124084473,5743.3
602.403808594,5716.0
602.683532715,5789.375
602.963256836,5752.175
603.242919922,5825.625
603.522583008,5863.825
603.802246094,5796.575
604.081848145,5786.725
604.36138916,5759.25
604.641052246,5781.175
604.920532227,5752.35
605.200073242,5796.35
605.479614258,5807.375
605.759094238,5847.1
606.038574219,5843.8
606.317932129,5782.55
606.597412109,5771.175
606.87677002,5809.5
607.15612793,5822.25
607.435546875,5831.45
607.714782715,5832.6
607.99407959,5790.075
608.273376465,5776.475
608.552612305,5796.425
608.831848145,5807.825
609.111083984,5814.925
609.390258789,5787.675
609.669433594,5797.3
609.948608398,5840.95
610.227722168,5834.6
610.506713867,5777.225
610.785888672,5806.65
611.064880371,5781.625
611.34387207,5800.65
611.622924805,5809.35
611.901916504,5812.0
612.180847168,5760.5
612.459777832,5728.225
612.738647461,5734.825
613.01751709,5733.2
613.296447754,5671.7
613.575317383,5633.225
613.854064941,5581.55
614.132873535,5475.625
614.411621094,5417.125
614.690368652,5392.075
614.969177246,5326.75
615.247802734,5251.4
615.526489258,5233.15
615.805175781,5108.875
616.08380127,4999.025
616.362365723,4937.225
616.640991211,4845.625
616.919555664,4805.55
617.198059082,4914.825
617.4765625,5199.325
617.755126953,5347.95
618.033569336,5404.125
618.311950684,5365.6
618.590454102,5367.625
618.868774414,5347.575
619.147155762,5336.85
619.425598145,5320.225
619.703857422,5353.9
619.982177734,5354.45
620.260498047,5362.225
620.538757324,5324.5
620.816955566,5293.225
621.095214844,5253.125
621.373413086,5242.325
621.651550293,5354.725
621.929748535,5375.625
622.207824707,5324.625
622.485900879,5339.625
622.764038086,5356.3
623.042053223,5392.575
623.320007324,5407.8
623.598083496,5424.0
623.876037598,5389.5
624.153991699,5419.9
624.432006836,5425.125
624.709838867,5433.875
624.987731934,5412.1
625.265563965,5411.9
625.543395996,5434.25
625.821228027,5493.575
626.098999023,5468.95
626.376831055,5513.4
626.654541016,5520.05
626.932250977,5584.025
627.209960938,5629.6
627.487670898,5659.575
627.765319824,5644.35
628.04296875,5670.15
628.320495605,5682.1
628.598083496,5677.65
628.875671387,5709.675
629.153259277,5750.15
629.430725098,5774.575
629.708251953,5802.5
629.985656738,5802.175
630.263122559,5857.25
630.540588379,5852.275
630.817932129,5873.775
631.095275879,5932.15
631.372680664,5994.675
631.649963379,6022.825
631.927246094,6057.425
632.204589844,6075.0
632.481811523,6148.3
632.759033203,6227.825
633.036254883,6245.675
633.313415527,6335.1
633.590576172,6375.525
633.867736816,6492.375
634.144836426,6564.6
634.421875,6609.625
634.698913574,6642.15
634.976013184,6714.475
635.252990723,6793.15
635.529968262,6821.475
635.807006836,6887.225
636.08392334,6882.375
636.360839844,6780.225
636.637756348,6686.275
636.914611816,6640.05
637.191467285,6632.95
637.468261719,6711.65
637.745056152,6688.0
638.021789551,6705.225
638.298583984,6704.425
638.575317383,6730.175
638.851989746,6753.3
639.12878418,6744.575
639.405395508,6747.7
639.682006836,6791.2
639.958618164,6766.65
640.235229492,6779.3
640.511779785,6812.05
640.788330078,6803.775
641.064880371,6790.075
641.341308594,6775.025
641.617797852,6798.625
641.894226074,6789.05
642.170654297,6781.675
642.44708252,6806.7
642.723388672,6797.85
642.999755859,6808.225
643.276123047,6821.825
643.552429199,6778.275
643.828674316,6776.1
644.104919434,6784.875
644.381164551,6771.425
644.657348633,6769.075
644.933532715,6738.275
645.209716797,6758.6
645.485839844,6748.225
645.761901855,6733.0
646.038024902,6725.675
646.314086914,6751.0
646.590087891,6726.0
646.866149902,6762.575
647.142150879,6727.975
647.41809082,6701.075
647.694030762,6703.85
647.969970703,6705.875
648.245788574,6719.8
648.521728516,6696.575
648.797546387,6679.65
649.073303223,6712.5
649.349182129,6649.925
649.624938965,6654.675
649.900634766,6671.575
650.176391602,6671.75
650.452087402,6661.45
650.727783203,6666.425
651.003479004,6696.55
651.279052734,6663.475
651.554626465,6696.6
651.83026123,6644.375
652.105773926,6692.825
652.381286621,6650.475
652.656860352,6666.4
652.932312012,6673.05
653.207763672,6682.325
653.483215332,6680.275
653.758605957,6689.025
654.033935547,6686.55
654.309326172,6676.775
654.584716797,6719.175
654.859985352,6709.725
655.135253906,6736.7
655.410583496,6764.15
655.685791016,7784.575
655.9609375,12138.125
656.236206055,11864.775
656.511291504,7878.725
656.786437988,6894.9
657.061645508,6800.25
657.336669922,6770.575
657.611694336,6810.325
657.886779785,6844.925
658.161804199,6849.1
658.436828613,6778.625
658.711791992,6812.875
658.986755371,6839.875
659.261657715,6849.6
659.536621094,6850.675
659.811401367,6859.975
660.086303711,6880.075
660.36114502,6887.75
660.635864258,6864.75
660.910644531,6912.875
661.185424805,6902.725
661.460205078,6931.175
661.734863281,6947.6
662.009521484,6934.325
662.284179688,6949.475
662.558776855,7014.0
662.833435059,7029.725
663.108032227,7031.975
663.382568359,7023.95
663.657043457,7070.075
663.93157959,7088.275
664.206054688,7075.825
664.48046875,7116.75
664.755004883,7153.9
665.02935791,7144.425
665.303710938,7145.125
665.578125,7206.8
665.852416992,7201.3
666.126708984,7201.575
666.401062012,7223.875
666.675292969,7244.575
666.949462891,7239.1
667.223754883,7271.975
667.497924805,7273.225
667.772094727,7283.375
668.046264648,7268.35
668.3203125,7356.6
668.594421387,7353.4
668.868469238,7362.45
669.14251709,7412.2
669.416503906,7411.7
669.690551758,7421.45
669.964477539,7422.8
670.23840332,7406.825
670.512329102,7403.825
670.786254883,7394.525
671.060058594,7470.45
671.333984375,7490.075
671.607788086,7502.5
671.881530762,7518.525
672.155334473,7552.2
672.429077148,7525.125
672.702758789,7574.075
672.97644043,7535.625
673.25012207,7569.2
673.523742676,7552.35
673.797302246,7558.775
674.070922852,7638.525
674.344482422,7640.675
674.618041992,7650.525
674.891601562,7644.45
675.165100098,7676.5
675.438476562,7674.2
675.711975098,7691.1
675.985412598,7649.75
676.258789062,7650.775
676.532165527,7715.175
676.805480957,7718.875
677.078796387,7781.525
677.352111816,7779.55
677.625366211,7770.425
677.898620605,7738.925
678.171875,7803.725
678.445007324,7788.875
678.718200684,7839.4
678.991394043,7803.025
679.264404297,7814.275
679.537536621,7850.025
679.81060791,7836.05
680.083679199,7838.725
680.356689453,7839.775
680.629699707,7859.65
680.902648926,7856.675
681.175598145,7935.125
681.448547363,7924.075
681.721435547,7918.5
681.99420166,7896.9
682.267150879,7897.325
682.539916992,7966.425
682.812744141,7955.975
683.085510254,7953.5
683.358215332,7982.125
683.63092041,7968.3
683.903625488,7993.2
684.176330566,7969.875
684.448913574,7940.85
684.721557617,7951.725
684.99420166,8031.7
685.266662598,8018.5
685.539245605,8026.925
685.811767578,8065.775
686.084289551,8084.5
686.356689453,8123.85
686.629150391,8107.75
686.901550293,8141.35
687.17401123,8149.55
687.446350098,8150.075
687.718688965,8139.475
687.990966797,8233.075
688.263305664,8217.7
688.535522461,8199.025
688.807739258,8187.075
689.079956055,8249.625
689.352172852,8254.8
689.624328613,8287.775
689.896484375,8291.25
690.168518066,8289.1
690.440612793,8346.8
690.71270752,8338.525
690.984741211,8357.875
691.256713867,8371.85
691.528747559,8382.9
691.800720215,8411.125
692.072631836,8434.95
692.344543457,8447.525
692.616394043,8436.625
692.888244629,8455.3
693.160095215,8458.2
693.431945801,8516.125
693.703674316,8489.475
693.975463867,8488.325
694.247131348,8508.575
694.518859863,8500.2
694.790588379,8592.0
695.062255859,8581.075
695.33380127,8557.675
695.60546875,8591.1
695.87701416,8609.175
696.148498535,8626.6
696.42010498,8661.675
696.691589355,8650.725
696.96307373,8681.325
697.234558105,8728.2
697.50592041,8729.475
697.777282715,8764.7
698.048706055,8752.5
698.320068359,8776.325
698.591308594,8726.65
698.862670898,8753.9
699.133972168,8786.225
699.405151367,8785.85
699.676391602,8816.525
699.947570801,8797.875
700.21875,8846.85
700.489868164,8848.525
700.761047363,8873.025
701.032104492,8933.75
701.303100586,8835.375
701.57421875,8943.0
701.845214844,8936.5
702.116149902,8948.625
702.387207031,8946.375
702.65814209,8970.95
702.928955078,8982.875
703.199951172,8955.875
703.47076416,8933.1
703.741577148,8935.425
704.012451172,8970.75
704.28314209,9004.45
704.553955078,8947.75
704.824707031,9022.05
705.095397949,9040.3
705.366027832,9026.25
705.63671875,9061.475
705.907348633,9016.2
706.17791748,9049.55
706.448486328,9094.6
706.719055176,9115.3
706.989562988,9110.95
707.260131836,9122.55
707.530517578,9188.825
707.800964355,9171.1
708.071411133,9137.6
708.341796875,9148.575
708.612182617,9121.65
708.882446289,9123.4
709.152893066,9148.4
709.423156738,9161.9
709.693359375,9141.7
709.963623047,9158.925
710.233825684,9177.45
710.503967285,9135.725
710.774169922,9169.35
711.044311523,9137.35
711.31439209,9161.2
711.584533691,9186.625
711.854553223,9168.95
712.124572754,9195.85
712.39465332,9192.625
712.664611816,9205.15
712.934509277,9282.7
713.204467773,9231.75
713.474365234,9259.325
713.74420166,9222.0
714.014099121,9235.95
714.283874512,9232.5
714.553710938,9289.9
714.823486328,9291.25
715.093200684,9244.875
715.362915039,9278.7
715.632629395,9275.35
715.902282715,9230.925
716.171875,9246.9
716.441589355,9256.825
716.711181641,9230.375
716.980712891,9261.7
717.250244141,9265.025
717.519775391,9289.125
717.78918457,9270.4
718.058654785,9314.7
718.328125,9348.6
718.597473145,9262.9
718.866882324,9283.5
719.136230469,9320.725
719.405578613,9340.775
719.674865723,9358.55
719.944152832,9349.65
720.213439941,9298.575
720.48260498,9345.45
720.75177002,9369.8
721.020996094,9316.575
721.290100098,9364.05
721.559204102,9320.35
721.828308105,9351.25
722.097351074,9337.5
722.366455078,9331.875
722.635437012,9296.3
722.904418945,9274.65
723.173400879,9329.55
723.442321777,9355.7
723.711181641,9317.4
723.980102539,9337.675
724.248962402,9348.375
724.51776123,9300.0
724.786560059,9353.15
725.055358887,9352.775
725.324035645,9326.225
725.592834473,9367.95
725.86151123,9323.425
726.130187988,9358.75
726.398803711,9332.6
726.667419434,9363.7
726.935974121,9305.5
727.204528809,9255.6
727.473083496,9301.8
727.741638184,9266.125
728.010070801,9201.1
728.278564453,9226.825
728.546936035,9249.55
728.815368652,9160.8
729.08380127,9092.325
729.352111816,9060.5
729.620361328,9020.45
729.88873291,9066.375
730.156982422,9117.575
730.425231934,9123.7
730.693481445,9116.225
730.961669922,9163.25
731.229797363,9182.775
731.49798584,9252.15
731.766113281,9290.5
732.034118652,9342.475
732.302246094,9396.5
732.570251465,9434.425
732.838256836,9464.7
733.106262207,9549.0
733.374145508,9599.15
733.642089844,9667.875
733.909973145,9706.55
734.177856445,9806.925
734.445678711,9881.225
734.713562012,9987.8
734.981323242,9990.05
735.249084473,10059.3
735.516845703,10199.8
735.784545898,10256.75
736.052185059,10307.075
736.319885254,10421.4
736.587524414,10448.2
736.855102539,10500.375
737.122619629,10645.625
737.390197754,10672.725
737.657714844,10754.1
737.925170898,10810.1
738.192749023,10941.55
738.460144043,10992.125
738.727539062,11047.475
738.994995117,11144.55
739.262329102,11256.875
739.529663086,11380.975
739.79699707,11411.2
740.06427002,11508.075
740.331481934,11563.9
740.598754883,11616.45
740.865905762,11642.225
741.133056641,11855.225
741.40032959,11838.3
741.667358398,11909.5
741.934448242,11900.775
742.201599121,11971.5
742.468566895,12046.1
742.735534668,12128.95
743.002563477,12149.275
743.26953125,12145.425
743.536437988,12208.875
743.803405762,12309.725
744.0703125,12264.825
744.337097168,12365.975
744.604003906,12248.675
744.870727539,12387.15
745.137512207,12439.85
745.40423584,12458.0
745.670959473,12434.25
745.93762207,12440.95
746.204284668,12500.925
746.470947266,12504.15
746.737548828,12465.75
747.004089355,12509.975
747.270751953,12524.8
747.53717041,12534.175
747.803710938,12469.7
748.070251465,12459.35
748.336608887,12468.6
748.603027344,12440.025
748.869445801,12440.525
749.135803223,12451.125
749.402099609,12456.675
749.668457031,12472.85
749.934753418,12434.15
750.20098877,12375.3
750.467224121,12441.6
750.733459473,12390.325
750.999572754,12367.925
751.26574707,12273.225
751.531860352,12342.3
751.797912598,12308.85
752.064025879,12241.525
752.330078125,12229.4
752.596069336,12195.8
752.862060547,12174.75
753.127990723,12158.15
753.393920898,12163.275
753.659912109,12132.925
753.925720215,12170.85
754.19152832,12120.025
754.457397461,12057.075
754.723144531,12064.075
754.988952637,11979.325
755.254699707,12033.5
755.520385742,12038.925
755.786071777,11991.825
756.051696777,11982.075
756.317382812,11963.4
756.582946777,11907.025
756.848510742,11925.125
757.114074707,11881.125
757.379577637,11834.725
757.645080566,11926.425
757.910583496,11858.85
758.175964355,11811.4
758.441345215,11770.4
758.706848145,11626.075
758.972106934,11604.6
759.237426758,11644.775
759.502807617,11680.725
759.768005371,11622.05
760.03326416,11637.55
760.298522949,11526.95
760.563659668,11609.025
760.828857422,11554.5
761.093994141,11564.775
761.359130859,11475.2
761.624206543,11475.05
761.889282227,11435.475
762.15423584,11384.875
762.419250488,11405.95
762.684265137,11347.4
762.949157715,11333.075
763.214050293,11339.4
763.479003906,11336.05
763.743835449,11289.025
764.008666992,11262.975
764.2734375,11222.325
764.538208008,11266.725
764.802978516,11283.15
765.067687988,11237.525
765.332397461,11229.7
765.597045898,11219.3
765.861694336,11152.025
766.126342773,11128.925
766.390930176,11108.075
766.655395508,11030.6
766.920043945,11007.125
767.184509277,11013.825
767.448974609,11029.85
767.713439941,11034.35
767.977783203,10958.425
768.2421875,11053.05
768.506591797,10944.275
768.770874023,11041.4
769.03515625,10991.7
769.299499512,10977.25
769.563720703,10962.05
769.827941895,10883.675
770.092163086,10858.325
770.356323242,10852.75
770.620483398,10898.575
770.88458252,10906.35
771.148681641,10929.975
771.412719727,10866.75
771.676757812,10904.25
771.940734863,10839.475
772.204711914,10849.625
772.468688965,10807.375
772.73260498,10817.6
772.996459961,10809.5
773.260314941,9607.7
773.524169922,1236.525
773.787963867,155.45
774.051696777,125.75
774.315551758,119.875
774.579223633,121.225
774.842895508,118.55
775.106567383,120.575
775.370239258,116.9
775.633789062,124.275
775.897399902,124.225
776.160949707,115.55
776.424499512,120.85
776.687988281,124.275
776.951477051,127.925
777.214904785,116.975
777.47833252,121.05
