191.299911499,102.55
191.603515625,101.725
191.907119751,95.275
192.210693359,104.9
192.514251709,100.25
192.817810059,102.6
193.121368408,103.025
193.42489624,104.9
193.728408813,99.825
194.031936646,98.825
194.33543396,95.65
194.638916016,110.05
194.94241333,96.8
195.245880127,95.7
195.549331665,95.2
195.852767944,99.075
196.156204224,183.725
196.459625244,177.075
196.763015747,181.05
197.066436768,185.05
197.369812012,178.625
197.673187256,181.85
197.9765625,177.55
198.279922485,178.8
198.583251953,174.9
198.886581421,178.35
199.18989563,186.275
199.493209839,184.025
199.79649353,174.225
200.09979248,184.2
200.403076172,180.775
200.706314087,178.55
201.009567261,180.55
201.312820435,180.575
201.616027832,174.625
201.919235229,170.8
202.222457886,173.25
202.525634766,179.675
202.828826904,172.925
203.132003784,169.725
203.435150146,173.175
203.738296509,173.625
204.041412354,170.5
204.344558716,175.55
204.647659302,180.1
204.950759888,178.875
205.253845215,175.6
205.556930542,170.25
205.859985352,175.975
206.163024902,171.325
206.466079712,176.525
206.769104004,182.525
207.072113037,177.2
207.375137329,175.375
207.678131104,176.0
207.981109619,181.1
208.284088135,170.525
208.587036133,182.5
208.889984131,176.875
209.19291687,178.5
209.495849609,183.075
209.798751831,182.175
210.101654053,179.1
210.404556274,181.45
210.707427979,181.225
211.010269165,187.175
211.31312561,183.575
211.615982056,180.325
211.918807983,186.55
212.221618652,182.0
212.524429321,176.95
212.827224731,186.875
213.130004883,181.425
213.432769775,185.45
213.735534668,185.025
214.038269043,192.85
214.341003418,186.325
214.643737793,197.65
214.946456909,191.9
215.249145508,194.7
215.551834106,196.725
215.854507446,199.025
216.157165527,192.675
216.45980835,197.5
216.762451172,202.55
217.065078735,200.725
217.36769104,204.5
217.670303345,206.725
217.972885132,208.075
218.275466919,207.85
218.578048706,206.275
218.880599976,218.825
219.183120728,218.675
219.485656738,227.475
219.788192749,238.375
220.090682983,264.45
220.393188477,281.75
220.695663452,321.425
220.998138428,345.725
221.300582886,394.775
221.603042603,428.1
221.905487061,476.325
222.207901001,532.475
222.510299683,590.475
222.812728882,658.625
223.115097046,730.375
223.41746521,804.925
223.719848633,870.25
224.022171021,934.65
224.324508667,1011.675
224.626846313,1111.95
224.929168701,1183.75
225.231460571,1256.6
225.533737183,1331.45
225.836013794,1427.475
226.138290405,1488.0
226.440536499,1546.6
226.742767334,1616.775
227.044998169,1673.725
227.347213745,1739.85
227.649429321,1792.525
227.951629639,1833.325
228.253799438,1899.025
228.555953979,1915.6
228.858123779,1975.35
229.160263062,2001.475
229.462371826,2026.75
229.764511108,2061.85
230.066619873,2084.5
230.36869812,2120.275
230.670776367,2144.975
230.972854614,2180.05
231.274902344,2209.3
231.576950073,2274.6
231.878967285,2285.575
232.180999756,2321.65
232.48298645,2353.525
232.784988403,2408.7
233.086975098,2429.1
233.388946533,2467.1
233.69090271,2517.175
233.992858887,2541.8
234.294769287,2556.2
234.596694946,2596.35
234.898605347,2632.525
235.200500488,2652.325
235.502380371,2692.075
235.804244995,2714.45
236.106109619,2710.35
236.407958984,2735.8
236.709777832,2749.625
237.011581421,2789.475
237.313400269,2775.325
237.615203857,2810.65
237.916976929,2831.275
238.21875,2827.475
238.520507812,2852.075
238.822250366,2865.15
239.12399292,2874.625
239.425704956,2914.125
239.727401733,2897.05
240.02911377,2930.075
240.330780029,2950.025
240.632446289,2962.05
240.93409729,2976.5
241.23576355,2999.775
241.537384033,3030.425
241.839004517,3058.875
242.140594482,3063.825
242.442199707,3114.775
242.743774414,3122.975
243.045333862,3176.075
243.346923828,3203.725
243.648452759,3218.325
243.949966431,3258.475
244.251495361,3289.375
244.552993774,3332.3
244.854492188,3340.55
245.155975342,3378.275
245.457443237,3417.425
245.758880615,3447.55
246.060333252,3449.05
246.36177063,3481.9
246.66317749,3504.9
246.964569092,3545.95
247.265945435,3568.35
247.567337036,3602.275
247.86869812,3672.3
248.170059204,3684.125
248.471389771,3716.825
248.772705078,3780.45
249.074035645,3844.95
249.375335693,3886.65
249.676620483,3946.0
249.977890015,4027.7
250.279159546,4104.55
250.58039856,4186.45
250.881637573,4243.65
251.182876587,4312.525
251.484069824,4405.275
251.785263062,4493.15
252.086456299,4616.325
252.387619019,4663.75
252.688781738,4744.175
252.989929199,4839.675
253.291061401,4962.4
253.592178345,4998.3
253.893280029,5102.8
254.194366455,5180.925
254.49546814,5232.1
254.796524048,5258.975
255.097579956,5364.8
255.398620605,5397.25
255.699645996,5494.475
256.000640869,5481.775
256.30166626,5507.25
256.602661133,5616.6
256.903656006,5592.5
257.204589844,5606.2
257.505523682,5614.6
257.80645752,5694.025
258.107391357,5649.575
258.408294678,5656.2
258.709228516,5640.35
259.010070801,5592.325
259.310943604,5593.675
259.611846924,5569.1
259.912658691,5520.05
260.213500977,5496.975
260.514343262,5445.025
260.815124512,5399.425
261.115936279,5376.7
261.416717529,5371.475
261.717468262,5329.175
262.018218994,5292.05
262.318969727,5300.9
262.619689941,5313.325
262.920410156,5352.95
263.221130371,5368.625
263.521789551,5385.675
263.822479248,5426.9
264.123138428,5479.0
264.42376709,5473.475
264.72442627,5465.825
265.025054932,5455.95
265.325622559,5478.875
265.626251221,5442.7
265.926818848,5415.875
266.227386475,5360.75
266.527954102,5348.375
266.828460693,5327.7
267.12902832,5242.225
267.429534912,5215.425
267.730010986,5185.375
268.030517578,5112.65
268.330993652,5060.45
268.631439209,5021.9
268.931915283,5010.625
269.232299805,4968.05
269.532745361,4938.0
269.8331604,4877.275
270.133544922,4868.75
270.433929443,4858.9
270.734313965,4820.825
271.034637451,4830.65
271.334991455,4795.475
271.635314941,4800.9
271.935638428,4835.2
272.235931396,4846.325
272.536254883,4873.075
272.836486816,4921.075
273.136749268,4966.725
273.437011719,5042.275
273.737213135,5115.175
274.037445068,5180.65
274.337677002,5234.825
274.6378479,5312.075
274.938049316,5408.375
275.238220215,5491.075
275.538360596,5588.575
275.838500977,5622.85
276.138641357,5752.2
276.438751221,5788.35
276.738830566,5851.4
277.03894043,5900.05
277.338989258,5983.45
277.639038086,6078.8
277.939056396,6080.525
278.239105225,6126.625
278.539093018,6229.25
278.839141846,6256.8
279.139129639,6280.425
279.439086914,6377.225
279.739044189,6390.05
280.039001465,6466.55
280.338928223,6484.75
280.63885498,6505.075
280.938781738,6540.8
281.238647461,6580.8
281.538513184,6583.175
281.838409424,6627.15
282.138244629,6657.9
282.438079834,6663.375
282.737945557,6703.575
283.037719727,6674.925
283.337524414,6680.7
283.637298584,6731.9
283.937072754,6711.4
284.236816406,6743.55
284.536560059,6684.825
284.836303711,6730.425
285.136016846,6764.05
285.43572998,6780.525
285.735412598,6740.2
286.035064697,6737.725
286.334747314,6773.7
286.634368896,6774.525
286.933990479,6740.175
287.233642578,6655.625
287.533203125,6666.0
287.832824707,6622.25
288.132385254,6528.45
288.431945801,6431.45
288.731506348,6316.45
289.031036377,6185.25
289.330566406,6075.375
289.630065918,6057.375
289.92956543,6013.975
290.229034424,6097.425
290.528503418,6251.325
290.827941895,6354.0
291.127380371,6500.575
291.42678833,6602.875
291.726226807,6685.9
292.025604248,6734.35
292.324981689,6780.775
292.624359131,6764.375
292.923736572,6784.025
293.223052979,6786.975
293.522369385,6790.1
293.821685791,6735.025
294.12097168,6715.175
294.420257568,6682.575
294.719543457,6688.675
295.018768311,6664.65
295.318023682,6613.7
295.617248535,6559.05
295.916442871,6524.975
296.215667725,6456.525
296.514862061,6331.125
296.813995361,6181.5
297.11315918,6005.7
297.412322998,5872.225
297.711425781,5849.45
298.010559082,5994.5
298.309631348,6161.3
298.608734131,6323.325
298.907806396,6502.95
299.206848145,6602.925
299.505889893,6667.675
299.804901123,6768.2
300.103912354,6805.425
300.402954102,6890.75
300.701904297,6926.0
301.00088501,7016.775
301.299835205,7062.9
301.5987854,7069.225
301.897735596,7162.375
302.196624756,7211.275
302.495513916,7272.675
302.794403076,7295.025
303.093292236,7343.425
303.392120361,7379.725
303.690979004,7431.925
303.989837646,7512.65
304.288604736,7526.65
304.587402344,7520.5
304.886199951,7562.675
305.184967041,7616.625
305.483734131,7641.45
305.782501221,7654.775
306.081176758,7670.1
306.37991333,7704.7
306.678619385,7704.55
306.977294922,7739.425
307.275970459,7762.8
307.574645996,7749.95
307.873260498,7751.6
308.171875,7756.575
308.470489502,7754.9
308.769104004,7682.675
309.067687988,7694.85
309.366241455,7693.65
309.664794922,7676.05
309.963348389,7674.65
310.261871338,7635.8
310.560394287,7654.875
310.858856201,7701.775
311.157348633,7747.225
311.455810547,7724.975
311.754272461,7749.175
312.052703857,7804.65
312.351135254,7819.95
312.649536133,7827.225
312.947937012,7807.75
313.246307373,7844.375
313.544647217,7851.775
313.843017578,7777.7
314.141387939,7766.4
314.439697266,7833.725
314.738006592,7738.325
315.036315918,7669.5
315.334564209,7604.425
315.6328125,7552.775
315.931091309,7499.15
316.229309082,7388.075
316.527526855,7289.15
316.825744629,7269.45
317.123901367,7177.125
317.422088623,7138.875
317.720245361,7151.375
318.0184021,7148.7
318.316497803,7180.7
318.614654541,7225.975
318.912750244,7322.775
319.21081543,7267.35
319.50894165,7315.7
319.806945801,7323.225
320.104980469,7313.45
320.403045654,7294.3
320.701049805,7301.425
320.999023438,7272.45
321.297027588,7239.925
321.595001221,7225.15
321.892913818,7186.45
322.190887451,7107.45
322.488830566,7078.1
322.786712646,7064.05
323.084625244,6976.125
323.382507324,6953.75
323.680358887,6909.8
323.978210449,6793.725
324.276062012,6770.175
324.573852539,6738.725
324.871643066,6684.075
325.169464111,6627.05
325.467224121,6579.325
325.764984131,6511.4
326.062744141,6451.825
326.360473633,6398.2
326.658203125,6352.85
326.955871582,6277.55
327.253570557,6221.25
327.551239014,6167.15
327.848907471,6108.625
328.146514893,6056.525
328.444152832,6003.6
328.741790771,5953.425
329.039367676,5912.75
329.336914062,5860.9
329.634521484,5802.525
329.932067871,5755.55
330.229553223,5695.55
330.527160645,5634.5
330.824615479,5628.325
331.12210083,5562.175
331.419586182,5443.8
331.717041016,5415.025
332.014465332,5344.7
332.311920166,5312.125
332.609313965,5254.575
332.906707764,5256.975
333.204101562,5236.3
333.501495361,5259.125
333.798828125,5295.55
334.096160889,5326.45
334.39352417,5364.075
334.690795898,5410.625
334.988098145,5446.65
335.285400391,5510.8
335.582641602,5500.875
335.879882812,5533.55
336.177124023,5536.15
336.474334717,5614.15
336.77154541,5625.85
337.068725586,5626.775
337.365905762,5632.025
337.66305542,5627.425
337.960205078,5668.1
338.257324219,5684.75
338.554443359,5699.825
338.8515625,5718.175
339.148590088,5714.8
339.445648193,5712.525
339.742736816,5674.825
340.039764404,5675.5
340.336761475,5643.825
340.63381958,5604.1
340.930755615,5580.7
341.227722168,5506.475
341.524688721,5426.9
341.821624756,5408.475
342.118560791,5411.2
342.415496826,5494.35
342.712402344,5608.75
343.009246826,5727.325
343.306121826,5846.55
343.602966309,5906.325
343.899810791,5965.025
344.196624756,6050.625
344.493438721,6053.175
344.79019165,6082.925
345.086975098,6147.35
345.383758545,6174.625
345.680480957,6180.2
345.977203369,6168.05
346.273956299,6227.25
346.570617676,6194.4
346.86730957,6226.85
347.163970947,6187.125
347.460601807,6233.55
347.757232666,6255.7
348.053894043,6233.45
348.350463867,6159.325
348.647064209,6154.775
348.943634033,6147.45
349.24017334,6172.025
349.536712646,6119.325
349.833251953,6148.7
350.129760742,6103.575
350.426208496,6105.7
350.722747803,6071.425
351.019195557,6074.55
351.315612793,6017.85
351.612060547,5994.525
351.908508301,5941.45
352.204864502,5900.825
352.501281738,5850.25
352.797637939,5783.575
353.093963623,5732.8
353.390319824,5667.25
353.686645508,5613.125
353.982940674,5537.0
354.27923584,5516.1
354.575531006,5471.325
354.871765137,5459.325
355.167999268,5435.825
355.464233398,5427.15
355.760437012,5444.8
356.056640625,5449.65
356.352813721,5482.75
356.648956299,5436.75
356.945129395,5461.725
357.241271973,5453.325
357.537384033,5479.325
357.833496094,5399.25
358.129577637,5416.5
358.425628662,5380.65
358.721679688,5377.125
359.017730713,5345.725
359.313720703,5311.225
359.609710693,5289.875
359.905761719,5246.7
360.201721191,5202.55
360.497650146,5136.45
360.793609619,5124.8
361.089538574,5075.95
361.385437012,5017.475
361.681365967,4968.025
361.977233887,4913.875
362.273071289,4867.125
362.568908691,4766.425
362.864746094,4665.1
363.160552979,4557.25
363.456359863,4431.675
363.752166748,4295.525
364.047912598,4217.975
364.343658447,4175.725
364.639434814,4206.975
364.935119629,4229.125
365.230834961,4305.025
365.526550293,4326.425
365.822174072,4346.875
366.117858887,4354.1
366.413482666,4377.025
366.709075928,4407.575
367.004730225,4327.275
367.300292969,4311.85
367.595855713,4373.85
367.891448975,4270.525
368.186981201,4178.775
368.482513428,4149.775
368.778015137,4139.95
369.073547363,4092.9
369.36895752,4117.175
369.664428711,4023.925
369.95993042,3948.1
370.255310059,3907.775
370.550720215,3876.375
370.846160889,3846.55
371.14151001,3807.25
371.436859131,3784.15
371.73223877,3771.15
372.027557373,3735.05
372.322875977,3688.45
372.618164062,3659.975
372.913482666,3619.0
373.208709717,3608.2
373.503967285,3559.825
373.799194336,3517.875
374.094421387,3532.025
374.389648438,3497.1
374.684844971,3492.575
374.979980469,3522.875
375.275146484,3537.425
375.570281982,3563.425
375.865386963,3561.85
376.160522461,3506.725
376.455596924,3538.15
376.750640869,3609.1
377.045715332,3608.55
377.340759277,3640.65
377.635772705,3690.525
377.93081665,3727.875
378.225769043,3797.45
378.520751953,3829.15
378.815734863,3794.35
379.110656738,3967.175
379.405548096,4102.3
379.700500488,3969.5
379.995391846,3787.9
380.290252686,3818.075
380.585083008,3898.125
380.879974365,3961.575
381.17477417,3874.4
381.469543457,3817.35
381.764404297,3795.075
382.059143066,3839.75
382.353912354,3913.325
382.648651123,4012.3
382.943389893,3983.525
383.238067627,3821.2
383.532775879,3828.875
383.827484131,3770.95
384.12210083,3764.425
384.416778564,3720.675
384.711425781,3639.7
385.006011963,3684.925
385.300628662,3661.175
385.595184326,3721.575
385.88973999,3804.85
386.184295654,3904.3
386.478820801,3980.675
386.77331543,4046.775
387.067840576,4152.775
387.362335205,4239.475
387.656768799,4304.725
387.951202393,4321.175
388.245635986,4403.6
388.540039062,4453.3
388.834472656,4516.775
389.128875732,4425.875
389.423187256,4214.925
389.717559814,4181.575
390.011871338,4282.225
390.306182861,4294.125
390.600463867,4338.575
390.894775391,4377.15
391.189025879,4400.2
391.48324585,4407.8
391.777526855,4438.65
392.071685791,4636.625
392.365875244,4730.125
392.660064697,4781.275
392.95425415,5102.2
393.248382568,5080.975
393.542510986,4662.475
393.836608887,4483.95
394.130706787,4507.7
394.424804688,4435.5
394.71887207,4560.525
395.012878418,4527.325
395.306915283,4417.05
395.600921631,4356.975
395.894927979,4348.475
396.188903809,4397.75
396.482879639,4392.65
396.776794434,4581.15
397.070739746,4551.65
397.364654541,4564.025
397.658538818,4928.775
397.952423096,4951.175
398.246307373,4910.1
398.540100098,5379.075
398.833953857,5262.375
399.127746582,4815.325
399.421508789,4828.375
399.715301514,4779.75
400.009063721,4704.75
400.30279541,4571.3
400.596496582,4482.925
400.890258789,4647.375
401.183929443,4729.575
401.47756958,4613.025
401.771240234,4415.05
402.064880371,4433.3
402.35848999,4462.95
402.652130127,4367.7
402.945678711,4432.675
403.239257812,4383.025
403.532775879,4328.55
403.82635498,4373.275
404.119842529,4298.125
404.413360596,4286.575
404.706848145,4349.975
405.000274658,4275.5
405.293762207,4352.3
405.587188721,4409.575
405.880584717,4250.55
406.17401123,4087.125
406.467407227,3923.575
406.760742188,3925.525
407.054107666,3936.275
407.347442627,3894.425
407.640716553,3880.025
407.934051514,3922.5
408.227325439,3984.275
408.520568848,4176.825
408.813842773,4271.975
409.107086182,4066.6
409.400238037,4031.275
409.693450928,3963.475
409.986633301,4065.75
410.279754639,4012.5
410.572875977,3735.9
410.86605835,3677.325
411.159118652,3701.9
411.452209473,3701.725
411.745330811,3575.475
412.038360596,3509.05
412.331390381,3555.8
412.624420166,3571.325
412.917388916,3494.2
413.210388184,3324.875
413.503387451,3296.0
413.796295166,3200.05
414.089233398,3044.6
414.382141113,2980.025
414.675048828,2976.35
414.967926025,2995.2
415.260803223,2944.175
415.55368042,2971.325
415.846466064,2949.95
416.139282227,3011.65
416.432098389,3121.65
416.724853516,3111.975
417.017608643,3069.875
417.31036377,3081.775
417.603088379,3189.9
417.895782471,3170.875
418.188476562,3136.4
418.481140137,3196.1
418.773803711,3235.225
419.066436768,3216.25
419.359039307,3296.7
419.651641846,3286.925
419.944244385,3278.425
420.236816406,3256.35
420.529327393,3428.175
420.821899414,3512.475
421.114379883,3433.45
421.406860352,3681.3
421.699371338,3873.9
421.991821289,3841.525
422.284240723,3652.25
422.576721191,3516.875
422.869110107,3420.725
423.161468506,3390.475
423.453857422,3417.825
423.74621582,3301.275
424.038543701,3179.725
424.330871582,3154.25
424.623168945,3079.175
424.915435791,3197.55
425.207702637,3169.4
425.499969482,3144.2
425.792205811,3073.2
426.084411621,2837.35
426.376617432,2920.575
426.668762207,2997.5
426.9609375,2886.95
427.253082275,2972.75
427.545196533,3339.35
427.837310791,3106.225
428.129425049,2831.175
428.421447754,3045.725
428.713531494,3024.7
429.005554199,3025.475
429.297576904,3035.15
429.589599609,3429.775
429.881561279,3706.15
430.173522949,3517.1
430.465484619,3468.9
430.757415771,3539.025
431.049316406,3323.4
431.341186523,3107.425
431.633117676,3037.2
431.924957275,2746.025
432.21673584,2645.35
432.508636475,2784.45
432.800415039,2800.975
433.092163086,2699.2
433.383972168,2683.45
433.675689697,3306.125
433.967437744,3762.95
434.259155273,2902.975
434.550872803,2634.725
434.842498779,2680.825
435.134185791,2796.325
435.425842285,2800.7
435.717437744,2720.725
436.009063721,2554.525
436.30065918,2685.625
436.592224121,2983.4
436.883758545,2820.575
437.175323486,2585.725
437.466827393,2548.85
437.758331299,2585.725
438.049804688,2599.425
438.341247559,2645.225
438.63269043,2718.625
438.924163818,2704.45
439.215515137,2679.8
439.50692749,2595.1
439.798309326,2590.3
440.089660645,2603.85
440.380981445,2514.5
440.672332764,2516.375
440.963623047,2743.6
441.254882812,3175.975
441.546173096,3323.65
441.837402344,3100.775
442.128631592,2930.0
442.41986084,2919.75
442.711029053,2813.775
443.002197266,2869.225
443.293365479,3040.25
443.584503174,3154.8
443.875610352,3124.35
444.166717529,2890.15
444.457794189,2920.65
444.748840332,2914.625
445.039916992,2879.7
445.330932617,2973.925
445.621948242,2817.775
445.912963867,2647.725
446.203918457,2852.45
446.494812012,3073.75
446.785827637,2876.3
447.076721191,2719.625
447.367584229,2687.55
447.658447266,2682.625
447.949371338,2730.875
448.24017334,2616.375
448.530975342,2548.275
448.821838379,2697.85
449.112579346,2777.7
449.40335083,2722.925
449.694152832,2741.25
449.984863281,2749.075
450.27557373,2683.925
450.56628418,2732.2
450.856933594,2757.7
451.147583008,2621.325
451.438262939,2507.7
451.728881836,2705.775
452.019470215,2771.1
452.310089111,2598.925
452.600646973,2617.225
452.891174316,2671.175
453.181732178,2506.625
453.472229004,2383.625
453.762695312,2496.0
454.053222656,2518.825
454.343658447,2404.2
454.634063721,2350.875
454.924530029,2504.8
455.214935303,2615.375
455.505279541,2683.825
455.795715332,2572.0
456.086029053,2385.55
456.376312256,2369.025
456.666687012,2396.8
456.956939697,2473.4
457.247192383,2498.825
457.537445068,2556.4
457.827728271,2717.6
458.117919922,2663.125
458.408081055,2592.075
458.698303223,2750.775
458.988433838,2685.95
459.278564453,2537.475
459.568725586,2784.45
459.858825684,2891.35
460.148864746,2600.675
460.438995361,2572.75
460.729034424,2629.525
461.019042969,2638.025
461.309082031,2802.125
461.599060059,2696.425
461.889007568,2302.15
462.179016113,2126.95
462.468933105,2352.025
462.75881958,2446.7
463.048736572,2203.2
463.338592529,2453.35
463.628448486,2765.4
463.918365479,2498.0
464.2081604,2661.95
464.497924805,2631.15
464.787780762,2737.925
465.077514648,3008.525
465.367218018,2666.675
465.657012939,2854.7
465.946685791,3198.925
466.236358643,2857.45
466.526092529,2376.45
466.815734863,2367.15
467.105316162,2313.075
467.394927979,2321.1
467.684570312,2202.325
467.974121094,2280.9
468.263671875,2375.625
468.553222656,2182.275
468.842773438,2095.15
469.132232666,2002.05
469.42175293,2030.35
469.711212158,2002.525
470.000640869,1891.5
470.290100098,1942.1
470.579498291,1975.8
470.868835449,1979.4
471.158294678,1930.975
471.447601318,1923.575
471.736907959,1990.825
472.026275635,2046.875
472.315551758,2030.1
472.604797363,2028.475
472.894104004,2134.35
473.183319092,2232.575
473.47253418,2216.725
473.761779785,2214.05
474.05090332,2151.525
474.340087891,2119.375
474.629241943,2055.975
474.918365479,2200.6
475.207427979,2450.5
475.496551514,2469.125
475.785614014,2234.325
476.074645996,2045.875
476.363708496,2137.3
476.652679443,2280.15
476.941650391,2095.275
477.230682373,1959.55
477.519622803,1969.925
477.808502197,2098.975
478.097412109,2329.425
478.386352539,2293.15
478.675201416,2051.725
478.964050293,1955.15
479.25289917,2135.875
479.541717529,2183.525
479.830474854,2042.05
480.11932373,2351.7
480.408050537,2496.9
480.696777344,2155.7
480.985534668,2043.575
481.274200439,2124.775
481.562866211,2367.125
481.851593018,2364.75
482.140197754,2310.025
482.428833008,2159.025
482.717468262,1989.525
483.006011963,2015.875
483.294586182,2119.35
483.5831604,2163.5
483.871673584,2028.625
484.16015625,2151.65
484.448699951,2386.175
484.7371521,2410.025
485.02557373,2404.5
485.314025879,2160.775
485.602416992,3353.575
485.890777588,11952.0
486.179199219,10652.25
486.467559814,2864.275
486.755859375,2077.175
487.044219971,2429.6
487.332519531,2580.225
487.620758057,2207.075
487.908966064,1985.425
488.197265625,1804.375
488.485473633,1728.6
488.773651123,1813.15
489.061859131,1806.275
489.350006104,1757.6
489.638122559,1713.975
489.926300049,1735.125
490.214355469,1693.15
490.502441406,1634.6
490.790527344,1580.625
491.078552246,1748.0
491.366546631,1755.2
491.654602051,1540.65
491.942565918,1607.85
492.230499268,1636.3
492.518493652,1612.375
492.806396484,1661.0
493.094268799,1554.125
493.382202148,1604.7
493.670074463,1715.5
493.957885742,1574.95
494.245727539,1570.075
494.533508301,1702.7
494.821289062,1615.925
495.109100342,1476.375
495.396850586,1432.0
495.684539795,1385.45
495.972290039,1586.675
496.25994873,1864.8
496.547607422,1873.6
496.835296631,1714.625
497.122894287,1429.85
497.410522461,1369.25
497.6980896,1368.8
497.985687256,1341.675
498.273223877,1423.9
498.560760498,1478.85
498.848266602,1517.325
499.135772705,1482.85
499.423217773,1521.625
499.710693359,1612.375
499.998138428,1549.7
500.285522461,1406.775
500.572937012,1344.475
500.860290527,1388.55
501.147644043,1476.075
501.434997559,1667.3
501.722290039,1556.6
502.00958252,1350.675
502.296875,1585.65
502.584106445,1565.75
502.871337891,1414.3
503.158599854,1487.35
503.445770264,1545.25
503.732910156,1524.95
504.020141602,1355.725
504.307220459,1343.075
504.594329834,1375.4
504.881469727,1312.6
505.168518066,1386.95
505.455535889,1442.25
505.742614746,1338.375
506.029632568,1271.5
506.316589355,1430.5
506.603637695,1501.55
506.890563965,1340.8
507.177459717,1199.35
507.464385986,1123.65
507.751312256,1313.725
508.038146973,1385.3
508.325012207,1267.6
508.611877441,1315.2
508.898681641,1323.55
509.185424805,1185.225
509.472259521,1146.0
509.759002686,1225.15
510.045715332,1244.65
510.332458496,1204.175
510.619140625,1247.825
510.905761719,1175.85
511.192504883,1167.725
511.479095459,1203.575
511.765686035,1168.25
512.052307129,1087.825
512.338928223,1045.8
512.625427246,1090.5
512.91204834,1141.425
513.198486328,1133.1
513.484985352,1103.15
513.77142334,1032.0
514.057922363,1083.025
514.344299316,1077.05
514.63079834,1046.5
514.917175293,1019.175
515.203552246,949.7
515.489868164,929.375
515.776245117,1029.55
516.0625,1064.8
516.348815918,988.925
516.635070801,1017.825
516.921325684,1061.175
517.207580566,1003.95
517.493774414,923.85
517.779968262,933.2
518.066101074,967.5
518.352294922,934.55
518.638366699,933.225
518.924499512,995.15
519.210632324,1058.7
519.496643066,1021.8
519.782714844,943.95
520.068786621,923.175
520.354736328,882.625
520.640686035,842.8
520.926757812,887.45
521.212646484,951.85
521.498535156,954.2
521.784484863,908.625
522.0703125,848.325
522.356262207,866.2
522.642089844,937.7
522.927856445,916.375
523.213684082,930.475
523.499511719,911.775
523.78527832,946.475
524.070983887,996.525
524.356750488,975.1
524.64239502,938.7
524.928039551,933.725
525.213806152,945.45
525.499389648,934.6
525.784973145,958.875
526.070617676,999.7
526.356140137,960.475
526.641723633,968.275
526.927307129,1025.55
527.212768555,1026.475
527.498291016,1003.825
527.783752441,1008.55
528.069213867,991.675
528.354675293,1006.025
528.640014648,1148.4
528.925476074,1198.825
529.21081543,1140.95
529.496154785,1108.275
529.781555176,1084.325
530.066833496,1099.75
530.352050781,1122.0
530.637390137,1106.675
530.922607422,1104.825
531.207824707,1103.45
531.493041992,1087.25
531.778198242,1147.85
532.063354492,1132.7
532.348571777,1087.45
532.633666992,1096.175
532.918762207,1172.95
533.203857422,1229.75
533.488891602,1257.75
533.773925781,1214.9
534.059020996,1190.45
534.343933105,1218.15
534.628967285,1190.25
534.91394043,1199.2
535.198852539,1210.95
535.483703613,1198.125
535.768676758,1150.575
536.053527832,1149.85
536.338317871,1113.2
536.62322998,1057.075
536.90802002,1049.85
537.192810059,1062.375
537.477539062,1127.9
537.762329102,1160.475
538.047058105,1203.425
538.331726074,1222.5
538.616455078,1213.05
538.901123047,1184.875
539.18572998,1218.85
539.470397949,1229.8
539.755004883,1216.475
540.039550781,1176.15
540.32409668,1151.1
540.608703613,1182.45
540.893188477,1259.85
541.17767334,1275.4
541.462158203,1273.8
541.746643066,1238.075
542.031066895,1263.925
542.315429688,1313.7
542.59979248,1309.175
542.884216309,1292.55
543.168579102,1283.7
543.452941895,1285.825
543.737243652,1331.475
544.021484375,1373.675
544.305725098,1358.9
544.590026855,1341.1
544.874267578,1357.525
545.158447266,1413.9
545.442626953,1340.15
545.726806641,1262.8
546.010925293,1287.9
546.29510498,1304.75
546.579162598,1302.15
546.863220215,1326.775
547.147277832,1387.65
547.431335449,1447.85
547.715332031,1498.2
547.999328613,1594.675
548.283325195,1596.475
548.567260742,1476.05
548.851135254,1462.1
549.135070801,1430.475
549.419006348,1354.6
549.702819824,1437.25
549.986755371,1493.225
550.270507812,1460.275
550.554321289,1495.625
550.83807373,1509.975
551.121826172,1470.55
551.405517578,1496.7
551.689331055,1572.9
551.973022461,1758.175
552.256652832,1817.1
552.540344238,1739.7
552.823974609,1721.25
553.107543945,1706.125
553.391174316,1751.2
553.674743652,1804.75
553.958251953,1805.025
554.241821289,1799.125
554.525268555,1756.075
554.808776855,1746.45
555.092285156,1909.625
555.375671387,1984.2
555.659057617,1978.35
555.942504883,2000.4
556.225891113,2029.6
556.509216309,2000.325
556.792541504,1927.375
557.075866699,1967.3
557.359130859,2026.425
557.64239502,2013.325
557.92565918,2086.325
558.208862305,2054.325
558.49206543,2013.1
558.77532959,2017.7
559.058410645,2055.025
559.341552734,2048.275
559.624694824,2093.8
559.907775879,2158.55
560.190856934,2257.9
560.473937988,2237.925
560.756896973,2280.975
561.039978027,2315.375
561.322937012,2265.9
561.605895996,2263.275
561.88885498,2225.5
562.171813965,2231.325
562.454650879,2228.35
562.737548828,2246.025
563.020446777,2309.575
563.303283691,2326.55
563.58605957,2362.1
563.868896484,2382.1
564.151672363,2402.175
564.434387207,2452.15
564.717163086,2414.525
564.99987793,2447.975
565.282531738,2501.0
565.565185547,2442.925
565.847839355,2454.55
566.130432129,2576.275
566.413085938,2535.025
566.695678711,2549.375
566.978149414,2643.675
567.260681152,2755.875
567.543273926,2819.825
567.825744629,2735.5
568.108154297,2773.075
568.390686035,2875.725
568.673095703,2987.575
568.955505371,3007.425
569.237854004,3037.8
569.520202637,3265.1
569.802490234,3448.975
570.084838867,3424.875
570.367126465,3293.825
570.649414062,3293.15
570.93170166,3603.525
571.213928223,3666.7
571.496154785,3445.75
571.778381348,3638.7
572.06048584,3869.975
572.342590332,3497.125
572.624755859,3197.2
572.906860352,3254.075
573.188903809,3815.4
573.470947266,4018.7
573.752990723,3825.35
574.03503418,3906.875
574.317016602,4238.35
574.598937988,4077.15
574.88092041,3977.575
575.162841797,4119.75
575.444763184,3804.875
575.726623535,3606.325
576.008483887,3626.3
576.290344238,3977.375
576.572143555,4130.225
576.853881836,4173.975
577.135681152,4132.1
577.417419434,4163.925
577.699157715,4898.15
577.980895996,5057.975
578.262573242,4504.225
578.544128418,4098.825
578.825866699,4055.35
579.107421875,3799.45
579.388977051,3943.025
579.670593262,4277.9
579.952148438,4156.625
580.233642578,4228.425
580.515197754,4333.05
580.796691895,4082.95
581.078125,4230.6
581.359619141,5523.6
581.640991211,5612.325
581.922363281,4822.75
582.203796387,4894.65
582.485107422,4577.55
582.766418457,4250.75
583.047790527,4149.175
583.329040527,4033.575
583.610290527,3934.8
583.891540527,4031.725
584.172790527,4283.325
584.453918457,4303.9
584.735107422,4363.825
585.016235352,4746.725
585.297363281,4745.725
585.578552246,4585.45
585.859619141,4529.85
586.140625,4335.775
586.421630859,4207.85
586.702697754,4267.55
586.983642578,4459.775
587.264648438,4584.775
587.545654297,4551.8
587.826477051,4509.175
588.107421875,4367.75
588.388305664,4394.8
588.669189453,4478.425
588.950012207,4370.85
589.230834961,4274.325
589.511657715,4353.275
589.792358398,4457.05
590.073120117,4452.4
590.353881836,4446.4
590.63458252,4475.0
590.915283203,4437.85
591.195922852,4433.85
591.4765625,4467.425
591.757202148,4514.575
592.037780762,4493.525
592.31829834,4512.7
592.598937988,4709.8
592.879394531,4862.0
593.159912109,4770.9
593.440429688,4738.125
593.720825195,4717.1
594.001281738,4695.75
594.281677246,4630.075
594.562072754,4665.35
594.842407227,4758.15
595.122802734,4781.1
595.403137207,4773.125
595.683410645,4761.5
595.963623047,4756.2
596.243896484,4716.375
596.524169922,4727.875
596.804382324,4741.9
597.084533691,4795.85
597.364746094,4807.85
597.644836426,4845.375
597.924987793,4823.225
598.205078125,4805.025
598.485107422,4842.525
598.765197754,4943.025
599.045227051,5001.375
599.325195312,4917.0
599.605224609,4897.375
599.885192871,4927.75
600.165100098,4963.2
600.445007324,4932.9
600.724914551,4934.45
601.004760742,4934.1
601.284667969,4968.225
601.56451416,4960.225
601.844238281,4960.05
602.124084473,4977.55
602.403808594,4982.1
602.683532715,5024.675
602.963256836,5015.7
603.242919922,5037.275
603.522583008,5099.125
603.802246094,5075.275
604.081848145,5042.875
604.36138916,5019.075
604.641052246,5072.45
604.920532227,5022.25
605.200073242,5077.75
605.479614258,5103.425
605.759094238,5150.35
606.038574219,5128.325
606.317932129,5083.3
606.597412109,5107.225
606.87677002,5115.8
607.15612793,5153.35
607.435546875,5165.275
607.714782715,5177.925
607.99407959,5113.75
608.273376465,5133.225
608.552612305,5146.275
608.831848145,5154.575
609.111083984,5168.05
609.390258789,5138.475
609.669433594,5163.7
609.948608398,5222.175
610.227722168,5203.5
610.506713867,5150.8
610.785888672,5171.725
611.064880371,5158.025
611.34387207,5175.875
611.622924805,5196.675
611.901916504,5208.05
612.180847168,5164.525
612.459777832,5153.375
612.738647461,5164.425
613.01751709,5148.175
613.296447754,5113.4
613.575317383,5079.1
613.854064941,5016.325
614.132873535,4956.25
614.411621094,4912.3
614.690368652,4893.55
614.969177246,4825.725
615.247802734,4755.275
615.526489258,4738.5
615.805175781,4625.825
616.08380127,4535.425
616.362365723,4460.725
616.640991211,4413.0
616.919555664,4360.6
617.198059082,4476.675
617.4765625,4743.275
617.755126953,4878.55
618.033569336,4906.025
618.311950684,4910.55
618.590454102,4911.4
618.868774414,4872.225
619.147155762,4886.7
619.425598145,4887.775
619.703857422,4924.525
619.982177734,4920.5
620.260498047,4896.75
620.538757324,4889.5
620.816955566,4873.925
621.095214844,4829.525
621.373413086,4837.825
621.651550293,4905.85
621.929748535,4948.85
622.207824707,4898.55
622.485900879,4935.875
622.764038086,4922.875
623.042053223,4957.125
623.320007324,4990.45
623.598083496,4980.075
623.876037598,4975.75
624.153991699,4984.9
624.432006836,5022.175
624.709838867,5041.4
624.987731934,5007.5
625.265563965,5013.05
625.543395996,5028.675
625.821228027,5090.0
626.098999023,5085.85
626.376831055,5118.075
626.654541016,5124.475
626.932250977,5181.875
627.209960938,5221.175
627.487670898,5253.625
627.765319824,5274.025
628.04296875,5261.175
628.320495605,5278.775
628.598083496,5294.375
628.875671387,5311.275
629.153259277,5326.825
629.430725098,5387.025
629.708251953,5382.7
629.985656738,5419.875
630.263122559,5458.9
630.540588379,5474.9
630.817932129,5502.95
631.095275879,5525.65
631.372680664,5587.475
631.649963379,5595.325
631.927246094,5659.7
632.204589844,5675.1
632.481811523,5750.25
632.759033203,5850.675
633.036254883,5842.575
633.313415527,5934.5
633.590576172,5981.9
633.867736816,6045.45
634.144836426,6122.8
634.421875,6178.85
634.698913574,6245.3
634.976013184,6288.9
635.252990723,6370.0
635.529968262,6376.6
635.807006836,6459.775
636.08392334,6465.25
636.360839844,6378.225
636.637756348,6252.5
636.914611816,6250.675
637.191467285,6220.8
637.468261719,6307.575
637.745056152,6271.875
638.021789551,6302.25
638.298583984,6295.475
638.575317383,6342.175
638.851989746,6358.375
639.12878418,6362.525
639.405395508,6347.65
639.682006836,6378.875
639.958618164,6396.725
640.235229492,6343.8
640.511779785,6389.8
640.788330078,6392.45
641.064880371,6388.0
641.341308594,6368.7
641.617797852,6385.35
641.894226074,6371.675
642.170654297,6395.2
642.44708252,6399.025
642.723388672,6374.125
642.999755859,6378.725
643.276123047,6406.275
643.552429199,6386.825
643.828674316,6375.7
644.104919434,6357.15
644.381164551,6372.0
644.657348633,6362.35
644.933532715,6332.625
645.209716797,6351.75
645.485839844,6336.275
645.761901855,6341.8
646.038024902,6330.8
646.314086914,6347.85
646.590087891,6328.275
646.866149902,6350.425
647.142150879,6301.15
647.41809082,6283.8
647.694030762,6298.7
647.969970703,6281.975
648.245788574,6302.55
648.521728516,6310.625
648.797546387,6267.0
649.073303223,6314.075
649.349182129,6291.0
649.624938965,6277.35
649.900634766,6281.975
650.176391602,6265.725
650.452087402,6262.475
650.727783203,6269.1
651.003479004,6285.475
651.279052734,6250.25
651.554626465,6226.375
651.83026123,6241.375
652.105773926,6276.95
652.381286621,6219.375
652.656860352,6224.575
652.932312012,6224.475
653.207763672,6239.1
653.483215332,6290.975
653.758605957,6254.325
654.033935547,6271.525
654.309326172,6242.65
654.584716797,6276.375
654.859985352,6254.375
655.135253906,6277.775
655.410583496,6280.225
655.685791016,7252.3
655.9609375,11298.4
656.236206055,11033.475
656.511291504,7324.125
656.786437988,6414.875
657.061645508,6321.85
657.336669922,6314.475
657.611694336,6346.475
657.886779785,6367.55
658.161804199,6361.0
658.436828613,6350.5
658.711791992,6357.3
658.986755371,6346.475
659.261657715,6339.375
659.536621094,6376.8
659.811401367,6380.45
660.086303711,6401.475
660.36114502,6375.125
660.635864258,6374.65
660.910644531,6413.35
661.185424805,6407.475
661.460205078,6430.0
661.734863281,6417.475
662.009521484,6414.175
662.284179688,6423.15
662.558776855,6451.325
662.833435059,6465.375
663.108032227,6489.325
663.382568359,6458.25
663.657043457,6494.55
663.93157959,6527.9
664.206054688,6477.075
664.48046875,6521.225
664.755004883,6565.1
665.02935791,6559.475
665.303710938,6591.775
665.578125,6610.9
665.852416992,6604.475
666.126708984,6581.25
666.401062012,6587.525
666.675292969,6633.75
666.949462891,6620.775
667.223754883,6629.5
667.497924805,6669.95
667.772094727,6671.325
668.046264648,6628.8
668.3203125,6708.2
668.594421387,6694.4
668.868469238,6706.9
669.14251709,6706.225
669.416503906,6709.375
669.690551758,6716.125
669.964477539,6721.175
670.23840332,6742.225
670.512329102,6738.425
670.786254883,6722.45
671.060058594,6765.0
671.333984375,6786.25
671.607788086,6775.45
671.881530762,6770.4
672.155334473,6813.575
672.429077148,6809.075
672.702758789,6837.575
672.97644043,6794.475
673.25012207,6810.075
673.523742676,6784.85
673.797302246,6786.3
674.070922852,6835.85
674.344482422,6842.75
674.618041992,6842.625
674.891601562,6842.9
675.165100098,6828.825
675.438476562,6846.975
675.711975098,6841.925
675.985412598,6855.25
676.258789062,6830.2
676.532165527,6879.95
676.805480957,6854.775
677.078796387,6849.075
677.352111816,6862.475
677.625366211,6856.7
677.898620605,6833.0
678.171875,6877.125
678.445007324,6869.475
678.718200684,6886.475
678.991394043,6863.8
679.264404297,6858.6
679.537536621,6881.525
679.81060791,6900.775
680.083679199,6876.875
680.356689453,6884.2
680.629699707,6906.675
680.902648926,6866.95
681.175598145,6920.725
681.448547363,6934.65
681.721435547,6902.225
681.99420166,6880.675
682.267150879,6872.275
682.539916992,6919.575
682.812744141,6881.975
683.085510254,6865.875
683.358215332,6873.925
683.63092041,6835.075
683.903625488,6868.075
684.176330566,6840.3
684.448913574,6825.275
684.721557617,6813.425
684.99420166,6860.625
685.266662598,6861.875
685.539245605,6865.5
685.811767578,6882.625
686.084289551,6888.975
686.356689453,6916.075
686.629150391,6910.5
686.901550293,6936.225
687.17401123,6934.875
687.446350098,6954.125
687.718688965,6943.475
687.990966797,6979.15
688.263305664,6988.575
688.535522461,6940.95
688.807739258,6938.85
689.079956055,6980.9
689.352172852,6987.4
689.624328613,6974.6
689.896484375,6980.0
690.168518066,6965.975
690.440612793,6981.9
690.71270752,6979.65
690.984741211,6959.575
691.256713867,6992.3
691.528747559,6977.175
691.800720215,6993.45
692.072631836,6995.25
692.344543457,7024.825
692.616394043,6991.025
692.888244629,7018.4
693.160095215,7033.35
693.431945801,7050.425
693.703674316,7017.7
693.975463867,6979.925
694.247131348,7028.25
694.518859863,6993.425
694.790588379,7023.05
695.062255859,7008.725
695.33380127,6997.9
695.60546875,7015.45
695.87701416,6972.3
696.148498535,7023.425
696.42010498,7031.2
696.691589355,7027.2
696.96307373,7053.35
697.234558105,7053.0
697.50592041,7048.725
697.777282715,7056.825
698.048706055,7037.3
698.320068359,7083.25
698.591308594,7017.425
698.862670898,7029.3
699.133972168,7063.775
699.405151367,7032.4
699.676391602,7077.35
699.947570801,7021.575
700.21875,7029.425
700.489868164,7013.775
700.761047363,7035.975
701.032104492,7046.075
701.303100586,6979.275
701.57421875,7061.6
701.845214844,7034.475
702.116149902,7029.975
702.387207031,7007.25
702.65814209,6997.75
702.928955078,7057.175
703.199951172,6985.9
703.47076416,6980.625
703.741577148,6970.975
704.012451172,7012.05
704.28314209,7002.875
704.553955078,6986.85
704.824707031,7001.75
705.095397949,7019.975
705.366027832,7025.625
705.63671875,6991.4
705.907348633,6965.7
706.17791748,6957.925
706.448486328,7003.325
706.719055176,6979.3
706.989562988,6973.35
707.260131836,7014.15
707.530517578,6976.675
707.800964355,6973.2
708.071411133,6945.7
708.341796875,6921.0
708.612182617,6914.475
708.882446289,6886.75
709.152893066,6917.1
709.423156738,6922.075
709.693359375,6881.85
709.963623047,6875.05
710.233825684,6900.3
710.503967285,6856.775
710.774169922,6853.6
711.044311523,6843.4
711.31439209,6819.275
711.584533691,6837.45
711.854553223,6844.725
712.124572754,6815.85
712.39465332,6801.125
712.664611816,6826.55
712.934509277,6835.125
713.204467773,6820.375
713.474365234,6811.525
713.74420166,6781.55
714.014099121,6803.1
714.283874512,6771.825
714.553710938,6805.625
714.823486328,6793.7
715.093200684,6726.85
715.362915039,6770.0
715.632629395,6745.85
715.902282715,6720.5
716.171875,6695.925
716.441589355,6688.325
716.711181641,6667.15
716.980712891,6685.75
717.250244141,6668.05
717.519775391,6672.75
717.78918457,6650.825
718.058654785,6689.275
718.328125,6691.175
718.597473145,6650.975
718.866882324,6622.425
719.136230469,6628.85
719.405578613,6649.725
719.674865723,6643.475
719.944152832,6626.225
720.213439941,6575.9
720.48260498,6593.675
720.75177002,6594.95
721.020996094,6597.025
721.290100098,6574.125
721.559204102,6551.05
721.828308105,6571.5
722.097351074,6550.775
722.366455078,6521.125
722.635437012,6504.7
722.904418945,6473.125
723.173400879,6502.075
723.442321777,6509.75
723.711181641,6477.375
723.980102539,6498.175
724.248962402,6473.575
724.51776123,6431.8
724.786560059,6470.6
725.055358887,6427.825
725.324035645,6423.55
725.592834473,6402.8
725.86151123,6405.275
726.130187988,6378.975
726.398803711,6372.15
726.667419434,6381.575
726.935974121,6359.425
727.204528809,6306.8
727.473083496,6337.05
727.741638184,6296.075
728.010070801,6262.35
728.278564453,6247.925
728.546936035,6231.5
728.815368652,6195.15
729.08380127,6139.9
729.352111816,6074.85
729.620361328,6055.0
729.88873291,6066.25
730.156982422,6103.625
730.425231934,6108.725
730.693481445,6108.575
730.961669922,6126.4
731.229797363,6152.5
731.49798584,6141.75
731.766113281,6176.15
732.034118652,6220.575
732.302246094,6244.75
732.570251465,6250.0
732.838256836,6274.95
733.106262207,6333.0
733.374145508,6348.625
733.642089844,6367.35
733.909973145,6364.0
734.177856445,6429.325
734.445678711,6479.225
734.713562012,6557.75
734.981323242,6542.325
735.249084473,6554.4
735.516845703,6689.25
735.784545898,6717.4
736.052185059,6712.475
736.319885254,6797.675
736.587524414,6820.375
736.855102539,6828.525
737.122619629,6915.275
737.390197754,6934.525
737.657714844,7014.4
737.925170898,7038.425
738.192749023,7095.3
738.460144043,7132.75
738.727539062,7176.675
738.994995117,7227.35
739.262329102,7287.475
739.529663086,7356.95
739.79699707,7364.55
740.06427002,7407.85
740.331481934,7433.075
740.598754883,7476.65
740.865905762,7478.95
741.133056641,7571.775
741.40032959,7570.85
741.667358398,7641.675
741.934448242,7646.675
742.201599121,7663.025
742.468566895,7740.625
742.735534668,7758.25
743.002563477,7806.8
743.26953125,7762.4
743.536437988,7816.025
743.803405762,7872.65
744.0703125,7834.925
744.337097168,7917.95
744.604003906,7845.35
744.870727539,7902.95
745.137512207,7909.825
745.40423584,7939.825
745.670959473,7907.6
745.93762207,7909.425
746.204284668,7920.625
746.470947266,7938.6
746.737548828,7905.3
747.004089355,7962.45
747.270751953,7946.6
747.53717041,7955.675
747.803710938,7913.2
748.070251465,7883.175
748.336608887,7881.65
748.603027344,7861.925
748.869445801,7857.425
749.135803223,7864.025
749.402099609,7881.375
749.668457031,7856.05
749.934753418,7804.975
750.20098877,7807.875
750.467224121,7830.15
750.733459473,7807.475
750.999572754,7786.975
751.26574707,7736.725
751.531860352,7754.95
751.797912598,7691.9
752.064025879,7651.8
752.330078125,7679.15
752.596069336,7647.075
752.862060547,7618.475
753.127990723,7626.75
753.393920898,7606.075
753.659912109,7579.5
753.925720215,7596.025
754.19152832,7582.425
754.457397461,7538.525
754.723144531,7503.9
754.988952637,7468.175
755.254699707,7491.1
755.520385742,7477.075
755.786071777,7498.45
756.051696777,7440.45
756.317382812,7427.25
756.582946777,7395.3
756.848510742,7408.2
757.114074707,7348.225
757.379577637,7352.175
757.645080566,7405.625
757.910583496,7380.825
758.175964355,7336.25
758.441345215,7331.775
758.706848145,7227.225
758.972106934,7242.4
759.237426758,7254.45
759.502807617,7253.925
759.768005371,7222.925
760.03326416,7229.55
760.298522949,7168.825
760.563659668,7184.925
760.828857422,7158.8
761.093994141,7161.675
761.359130859,7128.025
761.624206543,7120.575
761.889282227,7075.6
762.15423584,7083.475
762.419250488,7079.3
762.684265137,7036.0
762.949157715,7018.525
763.214050293,7007.175
763.479003906,7025.275
763.743835449,6991.25
764.008666992,6972.025
764.2734375,6973.45
764.538208008,6997.7
764.802978516,6993.4
765.067687988,6971.875
765.332397461,6960.05
765.597045898,6934.675
765.861694336,6943.35
766.126342773,6914.9
766.390930176,6903.6
766.655395508,6864.25
766.920043945,6847.5
767.184509277,6833.75
767.448974609,6831.875
767.713439941,6825.125
767.977783203,6821.4
768.2421875,6837.525
768.506591797,6812.55
768.770874023,6855.1
769.03515625,6840.725
769.299499512,6790.025
769.563720703,6820.875
769.827941895,6775.35
770.092163086,6793.025
770.356323242,6787.35
770.620483398,6793.375
770.88458252,6793.475
771.148681641,6782.6
771.412719727,6780.125
771.676757812,6798.675
771.940734863,6759.3
772.204711914,6734.425
772.468688965,6717.95
772.73260498,6709.95
772.996459961,6736.45
773.260314941,5982.275
773.524169922,796.375
773.787963867,142.35
774.051696777,121.5
774.315551758,120.925
774.579223633,120.9
774.842895508,118.75
775.106567383,120.925
775.370239258,117.975
775.633789062,124.875
775.897399902,126.25
776.160949707,118.775
776.424499512,121.675
776.687988281,124.05
776.951477051,126.45
777.214904785,119.3
777.47833252,120.1
