191.299911499,101.575
191.603515625,104.775
191.907119751,98.55
192.210693359,104.275
192.514251709,98.7
192.817810059,103.325
193.121368408,103.7
193.42489624,110.55
193.728408813,97.375
194.031936646,99.5
194.33543396,95.15
194.638916016,111.275
194.94241333,96.85
195.245880127,99.5
195.549331665,97.85
195.852767944,101.9
196.156204224,175.925
196.459625244,173.175
196.763015747,172.65
197.066436768,178.5
197.369812012,171.5
197.673187256,174.45
197.9765625,168.225
198.279922485,170.8
198.583251953,163.525
198.886581421,172.5
199.18989563,177.325
199.493209839,172.825
199.79649353,163.525
200.09979248,176.5
200.403076172,169.85
200.706314087,173.85
201.009567261,170.55
201.312820435,172.5
201.616027832,167.3
201.919235229,156.6
202.222457886,167.625
202.525634766,171.05
202.828826904,162.575
203.132003784,160.925
203.435150146,161.75
203.738296509,162.525
204.041412354,164.925
204.344558716,167.4
204.647659302,171.675
204.950759888,170.3
205.253845215,168.025
205.556930542,165.625
205.859985352,163.925
206.163024902,165.1
206.466079712,167.025
206.769104004,170.825
207.072113037,165.025
207.375137329,167.075
207.678131104,166.75
207.981109619,167.25
208.284088135,166.2
208.587036133,168.45
208.889984131,164.375
209.19291687,169.0
209.495849609,169.575
209.798751831,170.2
210.101654053,169.05
210.404556274,169.8
210.707427979,163.6
211.010269165,174.0
211.31312561,173.35
211.615982056,170.375
211.918807983,168.975
212.221618652,167.95
212.524429321,164.775
212.827224731,179.075
213.130004883,172.5
213.432769775,170.5
213.735534668,169.575
214.038269043,174.8
214.341003418,172.825
214.643737793,173.375
214.946456909,173.775
215.249145508,174.95
215.551834106,179.925
215.854507446,175.35
216.157165527,173.525
216.45980835,176.975
216.762451172,181.75
217.065078735,183.175
217.36769104,178.55
217.670303345,179.3
217.972885132,178.25
218.275466919,181.925
218.578048706,176.675
218.880599976,186.0
219.183120728,184.3
219.485656738,186.65
219.788192749,198.25
220.090682983,204.525
220.393188477,216.35
220.695663452,239.7
220.998138428,249.925
221.300582886,285.25
221.603042603,291.325
221.905487061,320.775
222.207901001,348.45
222.510299683,382.825
222.812728882,418.975
223.115097046,448.65
223.41746521,496.4
223.719848633,525.95
224.022171021,549.025
224.324508667,584.8
224.626846313,633.775
224.929168701,657.325
225.231460571,700.125
225.533737183,730.6
225.836013794,748.225
226.138290405,783.325
226.440536499,803.95
226.742767334,834.525
227.044998169,843.0
227.347213745,873.75
227.649429321,882.05
227.951629639,889.3
228.253799438,903.475
228.555953979,910.45
228.858123779,914.1
229.160263062,929.6
229.462371826,918.2
229.764511108,938.6
230.066619873,923.625
230.36869812,920.725
230.670776367,920.225
230.972854614,924.6
231.274902344,929.725
231.576950073,941.0
231.878967285,926.575
232.180999756,935.825
232.48298645,940.3
232.784988403,942.25
233.086975098,934.65
233.388946533,946.65
233.69090271,958.525
233.992858887,947.55
234.294769287,947.075
234.596694946,940.9
234.898605347,956.425
235.200500488,943.0
235.502380371,938.15
235.804244995,943.525
236.106109619,922.2
236.407958984,924.05
236.709777832,921.375
237.011581421,913.875
237.313400269,909.175
237.615203857,907.925
237.916976929,915.45
238.21875,903.375
238.520507812,895.625
238.822250366,900.35
239.12399292,890.95
239.425704956,904.475
239.727401733,875.725
240.02911377,893.65
240.330780029,880.775
240.632446289,885.15
240.93409729,880.575
241.23576355,883.275
241.537384033,880.775
241.839004517,892.125
242.140594482,887.3
242.442199707,909.2
242.743774414,895.0
243.045333862,902.8
243.346923828,901.55
243.648452759,907.225
243.949966431,904.125
244.251495361,920.0
244.552993774,925.325
244.854492188,923.8
245.155975342,934.95
245.457443237,943.05
245.758880615,948.575
246.060333252,952.05
246.36177063,957.525
246.66317749,970.7
246.964569092,968.4
247.265945435,990.075
247.567337036,992.375
247.86869812,1017.95
248.170059204,1019.075
248.471389771,1040.8
248.772705078,1056.725
249.074035645,1074.425
249.375335693,1083.925
249.676620483,1130.75
249.977890015,1136.7
250.279159546,1177.525
250.58039856,1193.675
250.881637573,1209.35
251.182876587,1243.5
251.484069824,1280.725
251.785263062,1305.95
252.086456299,1356.625
252.387619019,1373.725
252.688781738,1412.0
252.989929199,1466.225
253.291061401,1493.525
253.592178345,1543.0
253.893280029,1574.25
254.194366455,1604.925
254.49546814,1647.0
254.796524048,1682.3
255.097579956,1722.525
255.398620605,1760.225
255.699645996,1804.7
256.000640869,1823.775
256.30166626,1881.725
256.602661133,1907.625
256.903656006,1932.0
257.204589844,1963.475
257.505523682,1991.55
257.80645752,2032.875
258.107391357,2068.2
258.408294678,2074.8
258.709228516,2109.625
259.010070801,2111.9
259.310943604,2140.8
259.611846924,2156.6
259.912658691,2156.35
260.213500977,2197.45
260.514343262,2202.825
260.815124512,2220.2
261.115936279,2234.3
261.416717529,2266.55
261.717468262,2283.05
262.018218994,2291.875
262.318969727,2323.9
262.619689941,2359.6
262.920410156,2423.75
263.221130371,2450.275
263.521789551,2485.675
263.822479248,2550.2
264.123138428,2613.675
264.42376709,2631.625
264.72442627,2668.025
265.025054932,2697.4
265.325622559,2725.05
265.626251221,2765.4
265.926818848,2766.45
266.227386475,2772.325
266.527954102,2794.3
266.828460693,2821.5
267.12902832,2811.025
267.429534912,2811.15
267.730010986,2827.8
268.030517578,2813.025
268.330993652,2836.4
268.631439209,2828.325
268.931915283,2877.4
269.232299805,2871.6
269.532745361,2889.075
269.8331604,2879.775
270.133544922,2908.425
270.433929443,2936.15
270.734313965,2930.7
271.034637451,2956.65
271.334991455,2979.275
271.635314941,3016.925
271.935638428,3055.875
272.235931396,3106.075
272.536254883,3136.35
272.836486816,3201.475
273.136749268,3256.95
273.437011719,3344.35
273.737213135,3410.05
274.037445068,3495.8
274.337677002,3556.95
274.6378479,3654.5
274.938049316,3739.1
275.238220215,3817.875
275.538360596,3951.475
275.838500977,4003.95
276.138641357,4119.95
276.438751221,4176.375
276.738830566,4251.125
277.03894043,4319.125
277.338989258,4444.025
277.639038086,4524.275
277.939056396,4569.125
278.239105225,4662.675
278.539093018,4741.025
278.839141846,4816.1
279.139129639,4879.475
279.439086914,4971.5
279.739044189,5033.325
280.039001465,5124.25
280.338928223,5158.025
280.63885498,5249.15
280.938781738,5317.1
281.238647461,5357.5
281.538513184,5402.45
281.838409424,5451.025
282.138244629,5535.475
282.438079834,5561.7
282.737945557,5632.175
283.037719727,5657.1
283.337524414,5721.675
283.637298584,5759.125
283.937072754,5790.95
284.236816406,5843.0
284.536560059,5841.65
284.836303711,5871.55
285.136016846,5979.0
285.43572998,6005.725
285.735412598,5999.15
286.035064697,6039.775
286.334747314,6099.075
286.634368896,6123.625
286.933990479,6101.175
287.233642578,6091.575
287.533203125,6124.45
287.832824707,6107.325
288.132385254,6046.0
288.431945801,5978.875
288.731506348,5919.225
289.031036377,5786.5
289.330566406,5716.65
289.630065918,5740.775
289.92956543,5719.275
290.229034424,5821.05
290.528503418,5980.6
290.827941895,6095.325
291.127380371,6264.875
291.42678833,6380.45
291.726226807,6506.1
292.025604248,6540.975
292.324981689,6584.9
292.624359131,6641.825
292.923736572,6659.6
293.223052979,6664.475
293.522369385,6698.55
293.821685791,6656.05
294.12097168,6681.075
294.420257568,6679.6
294.719543457,6656.975
295.018768311,6659.075
295.318023682,6622.9
295.617248535,6586.8
295.916442871,6574.775
296.215667725,6509.2
296.514862061,6405.625
296.813995361,6232.3
297.11315918,6070.925
297.412322998,5980.35
297.711425781,5942.825
298.010559082,6090.75
298.309631348,6289.175
298.608734131,6457.2
298.907806396,6642.65
299.206848145,6781.025
299.505889893,6836.675
299.804901123,6951.375
300.103912354,7002.225
300.402954102,7087.85
300.701904297,7121.35
301.00088501,7221.3
301.299835205,7278.075
301.5987854,7298.4
301.897735596,7356.55
302.196624756,7430.225
302.495513916,7507.0
302.794403076,7530.25
303.093292236,7589.225
303.392120361,7645.925
303.690979004,7703.575
303.989837646,7745.525
304.288604736,7798.875
304.587402344,7807.775
304.886199951,7883.525
305.184967041,7897.025
305.483734131,7923.3
305.782501221,7972.65
306.081176758,7994.425
306.37991333,8013.925
306.678619385,8039.9
306.977294922,8031.225
307.275970459,8069.925
307.574645996,8081.625
307.873260498,8045.175
308.171875,8065.15
308.470489502,8060.35
308.769104004,8008.25
309.067687988,8019.75
309.366241455,7996.3
309.664794922,7983.45
309.963348389,7984.825
310.261871338,7981.625
310.560394287,8002.0
310.858856201,8029.75
311.157348633,8032.65
311.455810547,8057.4
311.754272461,8073.05
312.052703857,8123.825
312.351135254,8153.375
312.649536133,8148.45
312.947937012,8134.425
313.246307373,8167.6
313.544647217,8170.45
313.843017578,8124.45
314.141387939,8125.775
314.439697266,8135.3
314.738006592,8054.575
315.036315918,8014.625
315.334564209,7914.875
315.6328125,7875.25
315.931091309,7821.95
316.229309082,7739.0
316.527526855,7633.125
316.825744629,7575.575
317.123901367,7466.0
317.422088623,7445.775
317.720245361,7450.125
318.0184021,7457.95
318.316497803,7487.7
318.614654541,7545.075
318.912750244,7576.775
319.21081543,7599.15
319.50894165,7644.75
319.806945801,7640.125
320.104980469,7615.35
320.403045654,7605.875
320.701049805,7598.825
320.999023438,7594.35
321.297027588,7528.225
321.595001221,7522.5
321.892913818,7507.125
322.190887451,7422.525
322.488830566,7375.125
322.786712646,7362.525
323.084625244,7273.525
323.382507324,7238.925
323.680358887,7169.55
323.978210449,7115.7
324.276062012,7042.0
324.573852539,7018.3
324.871643066,6963.275
325.169464111,6912.05
325.467224121,6845.025
325.764984131,6807.05
326.062744141,6739.975
326.360473633,6646.35
326.658203125,6614.8
326.955871582,6549.625
327.253570557,6484.9
327.551239014,6446.55
327.848907471,6372.65
328.146514893,6310.675
328.444152832,6266.275
328.741790771,6229.7
329.039367676,6153.075
329.336914062,6108.25
329.634521484,6040.45
329.932067871,5996.9
330.229553223,5949.325
330.527160645,5894.575
330.824615479,5847.875
331.12210083,5777.15
331.419586182,5676.475
331.717041016,5628.05
332.014465332,5552.525
332.311920166,5522.475
332.609313965,5485.925
332.906707764,5481.225
333.204101562,5475.65
333.501495361,5461.7
333.798828125,5505.65
334.096160889,5534.5
334.39352417,5616.525
334.690795898,5662.425
334.988098145,5693.025
335.285400391,5730.5
335.582641602,5717.65
335.879882812,5805.075
336.177124023,5783.85
336.474334717,5851.225
336.77154541,5816.025
337.068725586,5859.725
337.365905762,5871.775
337.66305542,5876.675
337.960205078,5922.55
338.257324219,5940.425
338.554443359,5904.475
338.8515625,5941.65
339.148590088,5940.525
339.445648193,5955.45
339.742736816,5918.375
340.039764404,5916.225
340.336761475,5871.825
340.63381958,5847.85
340.930755615,5782.175
341.227722168,5737.375
341.524688721,5673.925
341.821624756,5623.825
342.118560791,5633.725
342.415496826,5736.75
342.712402344,5829.75
343.009246826,5971.375
343.306121826,6087.55
343.602966309,6112.025
343.899810791,6193.0
344.196624756,6267.6
344.493438721,6302.325
344.79019165,6360.05
345.086975098,6387.85
345.383758545,6445.25
345.680480957,6399.65
345.977203369,6425.475
346.273956299,6475.025
346.570617676,6461.1
346.86730957,6487.225
347.163970947,6455.025
347.460601807,6501.25
347.757232666,6495.95
348.053894043,6507.775
348.350463867,6422.6
348.647064209,6428.05
348.943634033,6398.425
349.24017334,6411.625
349.536712646,6373.35
349.833251953,6391.65
350.129760742,6354.275
350.426208496,6376.325
350.722747803,6307.9
351.019195557,6300.95
351.315612793,6272.4
351.612060547,6224.0
351.908508301,6188.075
352.204864502,6153.1
352.501281738,6100.225
352.797637939,6034.425
353.093963623,5963.3
353.390319824,5883.9
353.686645508,5833.75
353.982940674,5776.95
354.27923584,5710.675
354.575531006,5675.65
354.871765137,5662.5
355.167999268,5637.3
355.464233398,5659.1
355.760437012,5665.825
356.056640625,5664.95
356.352813721,5668.075
356.648956299,5655.55
356.945129395,5666.625
357.241271973,5695.75
357.537384033,5691.175
357.833496094,5633.425
358.129577637,5628.05
358.425628662,5612.225
358.721679688,5606.65
359.017730713,5580.875
359.313720703,5541.3
359.609710693,5489.1
359.905761719,5431.625
360.201721191,5412.075
360.497650146,5366.8
360.793609619,5347.475
361.089538574,5264.1
361.385437012,5192.8
361.681365967,5175.575
361.977233887,5125.25
362.273071289,5076.825
362.568908691,4960.75
362.864746094,4848.825
363.160552979,4739.725
363.456359863,4581.875
363.752166748,4465.725
364.047912598,4365.725
364.343658447,4342.8
364.639434814,4399.15
364.935119629,4411.5
365.230834961,4471.825
365.526550293,4506.375
365.822174072,4500.125
366.117858887,4524.45
366.413482666,4556.4
366.709075928,4588.175
367.004730225,4505.1
367.300292969,4495.55
367.595855713,4545.475
367.891448975,4449.35
368.186981201,4329.95
368.482513428,4301.4
368.778015137,4292.825
369.073547363,4270.425
369.36895752,4274.325
369.664428711,4175.7
369.95993042,4070.925
370.255310059,4035.8
370.550720215,4002.4
370.846160889,3993.575
371.14151001,3946.275
371.436859131,3923.675
371.73223877,3922.275
372.027557373,3893.475
372.322875977,3821.225
372.618164062,3796.325
372.913482666,3755.525
373.208709717,3753.1
373.503967285,3690.55
373.799194336,3658.45
374.094421387,3649.0
374.389648438,3626.5
374.684844971,3633.95
374.979980469,3670.125
375.275146484,3673.925
375.570281982,3700.375
375.865386963,3702.025
376.160522461,3640.525
376.455596924,3663.8
376.750640869,3745.225
377.045715332,3759.6
377.340759277,3788.4
377.635772705,3841.125
377.93081665,3869.775
378.225769043,3927.0
378.520751953,4006.05
378.815734863,3951.45
379.110656738,4102.4
379.405548096,4260.75
379.700500488,4126.775
379.995391846,3911.175
380.290252686,3965.575
380.585083008,4072.2
380.879974365,4103.3
381.17477417,4022.1
381.469543457,3970.075
381.764404297,3946.475
382.059143066,3977.325
382.353912354,4054.8
382.648651123,4132.55
382.943389893,4130.525
383.238067627,3973.95
383.532775879,3968.875
383.827484131,3898.75
384.12210083,3926.15
384.416778564,3872.375
384.711425781,3769.9
385.006011963,3805.225
385.300628662,3787.025
385.595184326,3879.25
385.88973999,3941.8
386.184295654,4051.775
386.478820801,4124.675
386.77331543,4224.425
387.067840576,4296.975
387.362335205,4379.175
387.656768799,4461.325
387.951202393,4496.825
388.245635986,4558.125
388.540039062,4637.475
388.834472656,4697.575
389.128875732,4603.925
389.423187256,4362.6
389.717559814,4338.3
390.011871338,4441.425
390.306182861,4467.975
390.600463867,4483.2
390.894775391,4569.2
391.189025879,4578.6
391.48324585,4560.875
391.777526855,4619.6
392.071685791,4826.2
392.365875244,4901.725
392.660064697,4973.7
392.95425415,5286.075
393.248382568,5264.925
393.542510986,4836.15
393.836608887,4660.9
394.130706787,4672.6
394.424804688,4593.75
394.71887207,4722.85
395.012878418,4702.25
395.306915283,4585.2
395.600921631,4542.6
395.894927979,4513.275
396.188903809,4549.525
396.482879639,4569.15
396.776794434,4747.825
397.070739746,4714.6
397.364654541,4731.125
397.658538818,5093.025
397.952423096,5123.575
398.246307373,5087.1
398.540100098,5608.0
398.833953857,5477.95
399.127746582,5019.55
399.421508789,5040.525
399.715301514,4962.6
400.009063721,4882.9
400.30279541,4734.025
400.596496582,4664.575
400.890258789,4833.55
401.183929443,4892.35
401.47756958,4809.85
401.771240234,4571.05
402.064880371,4592.8
402.35848999,4645.725
402.652130127,4533.425
402.945678711,4594.5
403.239257812,4558.0
403.532775879,4521.375
403.82635498,4550.875
404.119842529,4460.0
404.413360596,4457.775
404.706848145,4498.675
405.000274658,4463.425
405.293762207,4520.825
405.587188721,4560.85
405.880584717,4421.375
406.17401123,4260.1
406.467407227,4044.2
406.760742188,4063.9
407.054107666,4104.625
407.347442627,4035.65
407.640716553,4024.775
407.934051514,4067.175
408.227325439,4141.35
408.520568848,4345.85
408.813842773,4417.875
409.107086182,4234.525
409.400238037,4189.1
409.693450928,4110.125
409.986633301,4232.2
410.279754639,4150.475
410.572875977,3884.55
410.86605835,3810.35
411.159118652,3837.95
411.452209473,3842.475
411.745330811,3710.1
412.038360596,3629.625
412.331390381,3649.55
412.624420166,3699.175
412.917388916,3620.2
413.210388184,3457.175
413.503387451,3421.875
413.796295166,3327.85
414.089233398,3162.425
414.382141113,3077.15
414.675048828,3070.4
414.967926025,3101.775
415.260803223,3068.0
415.55368042,3097.375
415.846466064,3051.55
416.139282227,3118.75
416.432098389,3232.625
416.724853516,3222.425
417.017608643,3172.525
417.31036377,3189.55
417.603088379,3294.075
417.895782471,3268.025
418.188476562,3227.5
418.481140137,3314.925
418.773803711,3361.475
419.066436768,3336.425
419.359039307,3404.675
419.651641846,3415.875
419.944244385,3416.2
420.236816406,3369.55
420.529327393,3569.45
420.821899414,3638.925
421.114379883,3552.55
421.406860352,3810.95
421.699371338,4019.65
421.991821289,3994.825
422.284240723,3788.675
422.576721191,3658.0
422.869110107,3558.2
423.161468506,3508.175
423.453857422,3535.325
423.74621582,3414.725
424.038543701,3288.85
424.330871582,3260.95
424.623168945,3196.05
424.915435791,3329.05
425.207702637,3293.9
425.499969482,3238.675
425.792205811,3184.8
426.084411621,2951.7
426.376617432,3025.725
426.668762207,3088.175
426.9609375,2999.625
427.253082275,3095.225
427.545196533,3470.7
427.837310791,3212.2
428.129425049,2944.325
428.421447754,3139.875
428.713531494,3131.975
429.005554199,3138.1
429.297576904,3147.325
429.589599609,3549.05
429.881561279,3823.475
430.173522949,3630.875
430.465484619,3602.275
430.757415771,3657.825
431.049316406,3452.225
431.341186523,3241.15
431.633117676,3140.8
431.924957275,2842.975
432.21673584,2758.45
432.508636475,2889.45
432.800415039,2910.85
433.092163086,2814.975
433.383972168,2776.375
433.675689697,3446.7
433.967437744,3908.025
434.259155273,3012.075
434.550872803,2728.75
434.842498779,2765.625
435.134185791,2904.925
435.425842285,2912.775
435.717437744,2826.85
436.009063721,2640.225
436.30065918,2786.725
436.592224121,3116.45
436.883758545,2930.825
437.175323486,2672.5
437.466827393,2655.25
437.758331299,2666.375
438.049804688,2685.925
438.341247559,2758.15
438.63269043,2817.8
438.924163818,2804.5
439.215515137,2777.275
439.50692749,2674.925
439.798309326,2666.975
440.089660645,2684.95
440.380981445,2613.65
440.672332764,2607.65
440.963623047,2856.3
441.254882812,3270.2
441.546173096,3468.05
441.837402344,3223.425
442.128631592,3047.775
442.41986084,3032.65
442.711029053,2909.95
443.002197266,2955.25
443.293365479,3143.85
443.584503174,3258.775
443.875610352,3241.8
444.166717529,2976.35
444.457794189,3029.425
444.748840332,3042.15
445.039916992,2966.975
445.330932617,3064.375
445.621948242,2911.225
445.912963867,2735.575
446.203918457,2956.525
446.494812012,3165.125
446.785827637,2976.525
447.076721191,2809.125
447.367584229,2797.75
447.658447266,2757.6
447.949371338,2828.35
448.24017334,2702.925
448.530975342,2638.025
448.821838379,2801.9
449.112579346,2860.175
449.40335083,2798.925
449.694152832,2824.25
449.984863281,2836.025
450.27557373,2767.55
450.56628418,2832.05
450.856933594,2845.25
451.147583008,2703.35
451.438262939,2588.975
451.728881836,2784.95
452.019470215,2874.575
452.310089111,2681.45
452.600646973,2710.6
452.891174316,2760.85
453.181732178,2600.75
453.472229004,2488.0
453.762695312,2579.925
454.053222656,2598.875
454.343658447,2490.525
454.634063721,2439.175
454.924530029,2572.325
455.214935303,2724.75
455.505279541,2774.25
455.795715332,2656.3
456.086029053,2473.5
456.376312256,2446.65
456.666687012,2473.775
456.956939697,2582.8
457.247192383,2580.925
457.537445068,2641.8
457.827728271,2816.175
458.117919922,2760.3
458.408081055,2687.475
458.698303223,2854.975
458.988433838,2779.45
459.278564453,2625.975
459.568725586,2879.7
459.858825684,2983.4
460.148864746,2701.875
460.438995361,2652.125
460.729034424,2708.175
461.019042969,2712.05
461.309082031,2891.4
461.599060059,2800.825
461.889007568,2376.025
462.179016113,2209.925
462.468933105,2425.4
462.75881958,2524.3
463.048736572,2296.675
463.338592529,2534.25
463.628448486,2866.725
463.918365479,2590.575
464.2081604,2733.975
464.497924805,2704.725
464.787780762,2830.425
465.077514648,3119.2
465.367218018,2751.75
465.657012939,2942.2
465.946685791,3305.925
466.236358643,2955.4
466.526092529,2457.15
466.815734863,2449.025
467.105316162,2381.825
467.394927979,2417.675
467.684570312,2283.325
467.974121094,2344.0
468.263671875,2457.925
468.553222656,2261.725
468.842773438,2169.025
469.132232666,2069.775
469.42175293,2089.0
469.711212158,2066.45
470.000640869,1952.525
470.290100098,1997.5
470.579498291,2032.475
470.868835449,2042.7
471.158294678,1995.4
471.447601318,1986.275
471.736907959,2044.375
472.026275635,2105.325
472.315551758,2084.925
472.604797363,2072.35
472.894104004,2205.6
473.183319092,2299.7
473.47253418,2298.275
473.761779785,2295.675
474.05090332,2213.3
474.340087891,2181.975
474.629241943,2133.3
474.918365479,2279.9
475.207427979,2525.775
475.496551514,2540.55
475.785614014,2291.475
476.074645996,2113.275
476.363708496,2211.25
476.652679443,2327.15
476.941650391,2169.325
477.230682373,2022.625
477.519622803,2026.2
477.808502197,2162.5
478.097412109,2399.975
478.386352539,2372.475
478.675201416,2120.55
478.964050293,2022.575
479.25289917,2185.975
479.541717529,2255.625
479.830474854,2094.725
480.11932373,2426.225
480.408050537,2582.25
480.696777344,2234.2
480.985534668,2112.175
481.274200439,2194.4
481.562866211,2424.65
481.851593018,2443.9
482.140197754,2374.725
482.428833008,2240.4
482.717468262,2058.9
483.006011963,2091.475
483.294586182,2197.75
483.5831604,2232.975
483.871673584,2101.35
484.16015625,2227.325
484.448699951,2452.15
484.7371521,2492.125
485.02557373,2475.1
485.314025879,2232.1
485.602416992,3439.45
485.890777588,12343.525
486.179199219,11003.9
486.467559814,2928.5
486.755859375,2138.075
487.044219971,2491.875
487.332519531,2669.25
487.620758057,2290.05
487.908966064,2042.6
488.197265625,1856.875
488.485473633,1770.125
488.773651123,1881.85
489.061859131,1873.0
489.350006104,1816.15
489.638122559,1756.2
489.926300049,1795.675
490.214355469,1738.375
490.502441406,1703.425
490.790527344,1631.075
491.078552246,1806.625
491.366546631,1815.825
491.654602051,1578.75
491.942565918,1656.425
492.230499268,1702.475
492.518493652,1659.45
492.806396484,1686.3
493.094268799,1615.45
493.382202148,1649.025
493.670074463,1752.1
493.957885742,1609.625
494.245727539,1606.975
494.533508301,1762.425
494.821289062,1655.925
495.109100342,1520.6
495.396850586,1478.825
495.684539795,1434.575
495.972290039,1627.5
496.25994873,1929.225
496.547607422,1939.275
496.835296631,1773.225
497.122894287,1474.95
497.410522461,1417.15
497.6980896,1416.15
497.985687256,1375.775
498.273223877,1473.0
498.560760498,1540.25
498.848266602,1560.35
499.135772705,1519.175
499.423217773,1573.575
499.710693359,1653.475
499.998138428,1604.45
500.285522461,1448.875
500.572937012,1375.2
500.860290527,1428.925
501.147644043,1516.05
501.434997559,1727.875
501.722290039,1600.1
502.00958252,1392.0
502.296875,1631.6
502.584106445,1610.1
502.871337891,1446.55
503.158599854,1518.875
503.445770264,1588.375
503.732910156,1570.725
504.020141602,1408.075
504.307220459,1378.675
504.594329834,1414.5
504.881469727,1361.9
505.168518066,1411.025
505.455535889,1474.575
505.742614746,1378.725
506.029632568,1314.675
506.316589355,1474.475
506.603637695,1542.7
506.890563965,1368.725
507.177459717,1235.225
507.464385986,1146.975
507.751312256,1360.825
508.038146973,1427.675
508.325012207,1298.95
508.611877441,1352.425
508.898681641,1357.15
509.185424805,1221.35
509.472259521,1184.575
509.759002686,1253.725
510.045715332,1289.825
510.332458496,1230.45
510.619140625,1289.45
510.905761719,1211.825
511.192504883,1201.025
511.479095459,1237.2
511.765686035,1191.625
512.052307129,1109.275
512.338928223,1082.85
512.625427246,1134.5
512.91204834,1180.725
513.198486328,1155.9
513.484985352,1133.5
513.77142334,1062.775
514.057922363,1110.5
514.344299316,1097.3
514.63079834,1067.775
514.917175293,1060.75
515.203552246,975.975
515.489868164,958.65
515.776245117,1064.2
516.0625,1085.875
516.348815918,1010.375
516.635070801,1049.275
516.921325684,1090.725
517.207580566,1029.85
517.493774414,957.075
517.779968262,964.55
518.066101074,998.35
518.352294922,959.85
518.638366699,956.6
518.924499512,1036.975
519.210632324,1084.1
519.496643066,1067.55
519.782714844,970.3
520.068786621,947.25
520.354736328,920.75
520.640686035,886.4
520.926757812,914.9
521.212646484,983.8
521.498535156,982.375
521.784484863,934.175
522.0703125,877.2
522.356262207,893.35
522.642089844,964.525
522.927856445,956.375
523.213684082,945.35
523.499511719,941.875
523.78527832,969.6
524.070983887,1018.325
524.356750488,998.35
524.64239502,962.075
524.928039551,962.9
525.213806152,966.975
525.499389648,961.6
525.784973145,982.9
526.070617676,1025.975
526.356140137,997.95
526.641723633,983.4
526.927307129,1049.1
527.212768555,1055.85
527.498291016,1029.05
527.783752441,1030.575
528.069213867,1013.025
528.354675293,1035.6
528.640014648,1173.825
528.925476074,1232.55
529.21081543,1167.225
529.496154785,1145.45
529.781555176,1120.95
530.066833496,1134.175
530.352050781,1151.075
530.637390137,1135.675
530.922607422,1131.175
531.207824707,1135.675
531.493041992,1118.725
531.778198242,1180.375
532.063354492,1160.65
532.348571777,1118.9
532.633666992,1129.7
532.918762207,1198.1
533.203857422,1269.075
533.488891602,1277.7
533.773925781,1241.2
534.059020996,1220.475
534.343933105,1242.275
534.628967285,1213.4
534.91394043,1241.3
535.198852539,1259.525
535.483703613,1220.875
535.768676758,1177.125
536.053527832,1182.75
536.338317871,1150.05
536.62322998,1091.425
536.90802002,1070.575
537.192810059,1088.9
537.477539062,1154.2
537.762329102,1183.9
538.047058105,1224.4
538.331726074,1240.575
538.616455078,1228.675
538.901123047,1219.825
539.18572998,1255.25
539.470397949,1254.125
539.755004883,1240.15
540.039550781,1216.35
540.32409668,1180.5
540.608703613,1207.175
540.893188477,1286.7
541.17767334,1304.475
541.462158203,1310.45
541.746643066,1257.825
542.031066895,1298.775
542.315429688,1329.925
542.59979248,1325.175
542.884216309,1323.75
543.168579102,1309.825
543.452941895,1308.45
543.737243652,1361.825
544.021484375,1405.075
544.305725098,1396.5
544.590026855,1372.325
544.874267578,1378.375
545.158447266,1446.425
545.442626953,1373.375
545.726806641,1276.15
546.010925293,1315.075
546.29510498,1330.65
546.579162598,1324.075
546.863220215,1355.875
547.147277832,1407.7
547.431335449,1475.275
547.715332031,1531.525
547.999328613,1618.975
548.283325195,1628.5
548.567260742,1501.975
548.851135254,1481.15
549.135070801,1457.525
549.419006348,1375.0
549.702819824,1456.525
549.986755371,1520.775
550.270507812,1492.05
550.554321289,1528.35
550.83807373,1525.1
551.121826172,1500.85
551.405517578,1510.275
551.689331055,1608.25
551.973022461,1800.175
552.256652832,1848.05
552.540344238,1763.375
552.823974609,1751.525
553.107543945,1737.95
553.391174316,1781.95
553.674743652,1828.6
553.958251953,1828.8
554.241821289,1858.375
554.525268555,1793.275
554.808776855,1785.2
555.092285156,1949.125
555.375671387,2004.625
555.659057617,1995.175
555.942504883,2043.925
556.225891113,2044.6
556.509216309,2019.85
556.792541504,1942.975
557.075866699,1999.975
557.359130859,2039.3
557.64239502,2038.125
557.92565918,2099.8
558.208862305,2094.775
558.49206543,2022.875
558.77532959,2041.925
559.058410645,2089.55
559.341552734,2075.35
559.624694824,2115.075
559.907775879,2166.725
560.190856934,2271.0
560.473937988,2269.775
560.756896973,2303.975
561.039978027,2334.15
561.322937012,2297.15
561.605895996,2291.2
561.88885498,2254.225
562.171813965,2258.8
562.454650879,2236.375
562.737548828,2273.225
563.020446777,2346.45
563.303283691,2359.125
563.58605957,2383.8
563.868896484,2396.2
564.151672363,2438.925
564.434387207,2465.825
564.717163086,2433.7
564.99987793,2480.275
565.282531738,2523.525
565.565185547,2473.375
565.847839355,2487.0
566.130432129,2571.025
566.413085938,2545.25
566.695678711,2563.55
566.978149414,2657.2
567.260681152,2793.55
567.543273926,2848.225
567.825744629,2742.775
568.108154297,2791.425
568.390686035,2908.15
568.673095703,2996.625
568.955505371,3039.15
569.237854004,3062.95
569.520202637,3282.85
569.802490234,3468.275
570.084838867,3446.05
570.367126465,3308.95
570.649414062,3334.175
570.93170166,3621.7
571.213928223,3677.15
571.496154785,3484.05
571.778381348,3666.375
572.06048584,3887.075
572.342590332,3509.8
572.624755859,3225.575
572.906860352,3272.0
573.188903809,3831.975
573.470947266,4038.45
573.752990723,3843.425
574.03503418,3933.725
574.317016602,4246.425
574.598937988,4092.275
574.88092041,3971.4
575.162841797,4117.825
575.444763184,3844.8
575.726623535,3608.025
576.008483887,3648.475
576.290344238,3981.05
576.572143555,4152.4
576.853881836,4216.95
577.135681152,4131.3
577.417419434,4169.75
577.699157715,4923.175
577.980895996,5079.325
578.262573242,4525.475
578.544128418,4114.8
578.825866699,4061.85
579.107421875,3804.775
579.388977051,3960.525
579.670593262,4292.725
579.952148438,4142.675
580.233642578,4241.15
580.515197754,4340.625
580.796691895,4089.15
581.078125,4230.125
581.359619141,5518.25
581.640991211,5605.425
581.922363281,4845.925
582.203796387,4904.8
582.485107422,4582.05
582.766418457,4264.275
583.047790527,4126.025
583.329040527,4028.7
583.610290527,3927.5
583.891540527,4033.275
584.172790527,4304.425
584.453918457,4310.275
584.735107422,4367.925
585.016235352,4759.675
585.297363281,4741.3
585.578552246,4566.175
585.859619141,4517.025
586.140625,4319.4
586.421630859,4228.875
586.702697754,4240.7
586.983642578,4448.675
587.264648438,4609.475
587.545654297,4547.775
587.826477051,4521.075
588.107421875,4347.1
588.388305664,4387.45
588.669189453,4490.225
588.950012207,4365.85
589.230834961,4263.575
589.511657715,4350.05
589.792358398,4445.825
590.073120117,4461.7
590.353881836,4422.525
590.63458252,4432.675
590.915283203,4412.85
591.195922852,4419.5
591.4765625,4453.025
591.757202148,4488.6
592.037780762,4494.05
592.31829834,4494.45
592.598937988,4671.9
592.879394531,4853.075
593.159912109,4775.225
593.440429688,4718.75
593.720825195,4697.525
594.001281738,4705.7
594.281677246,4623.525
594.562072754,4677.475
594.842407227,4752.3
595.122802734,4776.15
595.403137207,4767.175
595.683410645,4735.225
595.963623047,4724.575
596.243896484,4705.475
596.524169922,4700.375
596.804382324,4725.1
597.084533691,4759.35
597.364746094,4790.275
597.644836426,4809.35
597.924987793,4798.9
598.205078125,4766.6
598.485107422,4810.975
598.765197754,4913.85
599.045227051,4979.275
599.325195312,4898.225
599.605224609,4842.65
599.885192871,4896.8
600.165100098,4913.625
600.445007324,4907.575
600.724914551,4901.1
601.004760742,4914.8
601.284667969,4954.125
601.56451416,4893.85
601.844238281,4936.275
602.124084473,4932.075
602.403808594,4936.6
602.683532715,4974.2
602.963256836,4978.375
603.242919922,5015.725
603.522583008,5056.8
603.802246094,5019.05
604.081848145,5012.25
604.36138916,4977.175
604.641052246,5028.775
604.920532227,4988.75
605.200073242,5033.875
605.479614258,5057.95
605.759094238,5093.6
606.038574219,5105.825
606.317932129,5043.45
606.597412109,5029.675
606.87677002,5081.8
607.15612793,5106.325
607.435546875,5094.3
607.714782715,5095.9
607.99407959,5091.725
608.273376465,5056.95
608.552612305,5096.7
608.831848145,5102.925
609.111083984,5106.2
609.390258789,5093.425
609.669433594,5097.75
609.948608398,5145.225
610.227722168,5151.725
610.506713867,5089.525
610.785888672,5110.625
611.064880371,5104.65
611.34387207,5100.8
611.622924805,5113.575
611.901916504,5115.55
612.180847168,5087.6
612.459777832,5083.45
612.738647461,5091.125
613.01751709,5061.575
613.296447754,5013.375
613.575317383,4984.675
613.854064941,4951.1
614.132873535,4877.1
614.411621094,4802.05
614.690368652,4785.2
614.969177246,4749.5
615.247802734,4668.85
615.526489258,4641.525
615.805175781,4545.225
616.08380127,4429.525
616.362365723,4369.35
616.640991211,4329.525
616.919555664,4263.55
617.198059082,4396.425
617.4765625,4639.325
617.755126953,4782.9
618.033569336,4801.4
618.311950684,4801.5
618.590454102,4775.725
618.868774414,4766.075
619.147155762,4767.575
619.425598145,4762.525
619.703857422,4767.45
619.982177734,4770.325
620.260498047,4785.375
620.538757324,4764.675
620.816955566,4718.6
621.095214844,4678.95
621.373413086,4695.55
621.651550293,4746.475
621.929748535,4770.875
622.207824707,4770.975
622.485900879,4798.475
622.764038086,4791.6
623.042053223,4809.575
623.320007324,4820.875
623.598083496,4825.2
623.876037598,4811.95
624.153991699,4843.075
624.432006836,4838.875
624.709838867,4867.525
624.987731934,4834.575
625.265563965,4843.725
625.543395996,4843.7
625.821228027,4899.925
626.098999023,4899.65
626.376831055,4943.95
626.654541016,4943.475
626.932250977,4959.425
627.209960938,5036.275
627.487670898,5034.825
627.765319824,5050.025
628.04296875,5066.725
628.320495605,5067.875
628.598083496,5064.55
628.875671387,5085.275
629.153259277,5105.25
629.430725098,5153.35
629.708251953,5133.45
629.985656738,5169.625
630.263122559,5209.85
630.540588379,5215.125
630.817932129,5228.175
631.095275879,5265.2
631.372680664,5308.0
631.649963379,5323.775
631.927246094,5363.95
632.204589844,5391.425
632.481811523,5452.15
632.759033203,5520.05
633.036254883,5521.075
633.313415527,5602.225
633.590576172,5664.55
633.867736816,5745.7
634.144836426,5791.6
634.421875,5828.95
634.698913574,5889.075
634.976013184,5918.3
635.252990723,5985.775
635.529968262,5997.3
635.807006836,6075.275
636.08392334,6057.475
636.360839844,5971.45
636.637756348,5872.525
636.914611816,5851.35
637.191467285,5821.15
637.468261719,5903.025
637.745056152,5861.15
638.021789551,5888.65
638.298583984,5869.225
638.575317383,5910.425
638.851989746,5926.05
639.12878418,5918.05
639.405395508,5907.225
639.682006836,5948.7
639.958618164,5899.225
640.235229492,5894.775
640.511779785,5952.95
640.788330078,5912.675
641.064880371,5907.85
641.341308594,5878.125
641.617797852,5892.925
641.894226074,5884.375
642.170654297,5898.5
642.44708252,5896.35
642.723388672,5886.55
642.999755859,5880.975
643.276123047,5864.15
643.552429199,5836.0
643.828674316,5843.3
644.104919434,5832.45
644.381164551,5815.1
644.657348633,5801.925
644.933532715,5787.55
645.209716797,5813.475
645.485839844,5796.05
645.761901855,5783.45
646.038024902,5760.475
646.314086914,5788.15
646.590087891,5751.0
646.866149902,5777.15
647.142150879,5741.925
647.41809082,5717.775
647.694030762,5708.3
647.969970703,5702.275
648.245788574,5724.325
648.521728516,5693.875
648.797546387,5680.575
649.073303223,5696.125
649.349182129,5686.85
649.624938965,5673.85
649.900634766,5683.875
650.176391602,5663.65
650.452087402,5643.6
650.727783203,5614.025
651.003479004,5621.55
651.279052734,5620.125
651.554626465,5613.675
651.83026123,5563.9
652.105773926,5614.85
652.381286621,5572.25
652.656860352,5558.0
652.932312012,5593.375
653.207763672,5561.825
653.483215332,5611.675
653.758605957,5568.05
654.033935547,5572.3
654.309326172,5565.4
654.584716797,5576.775
654.859985352,5541.9
655.135253906,5554.7
655.410583496,5576.675
655.685791016,6422.175
655.9609375,10055.45
656.236206055,9812.35
656.511291504,6466.05
656.786437988,5668.05
657.061645508,5597.25
657.336669922,5547.225
657.611694336,5604.35
657.886779785,5622.55
658.161804199,5631.075
658.436828613,5570.025
658.711791992,5576.4
658.986755371,5593.175
659.261657715,5585.225
659.536621094,5588.925
659.811401367,5597.575
660.086303711,5615.075
660.36114502,5586.975
660.635864258,5576.225
660.910644531,5616.7
661.185424805,5593.2
661.460205078,5588.1
661.734863281,5596.775
662.009521484,5610.6
662.284179688,5606.225
662.558776855,5619.475
662.833435059,5635.1
663.108032227,5627.95
663.382568359,5629.175
663.657043457,5667.95
663.93157959,5665.85
664.206054688,5652.45
664.48046875,5688.075
664.755004883,5711.55
665.02935791,5699.7
665.303710938,5696.35
665.578125,5735.025
665.852416992,5713.35
666.126708984,5718.8
666.401062012,5721.3
666.675292969,5747.2
666.949462891,5743.525
667.223754883,5728.625
667.497924805,5768.675
667.772094727,5787.325
668.046264648,5739.6
668.3203125,5776.675
668.594421387,5791.3
668.868469238,5789.85
669.14251709,5786.525
669.416503906,5807.1
669.690551758,5802.3
669.964477539,5788.15
670.23840332,5807.525
670.512329102,5791.825
670.786254883,5773.45
671.060058594,5806.65
671.333984375,5826.225
671.607788086,5817.875
671.881530762,5826.75
672.155334473,5842.05
672.429077148,5846.575
672.702758789,5863.4
672.97644043,5838.275
673.25012207,5828.475
673.523742676,5818.375
673.797302246,5829.9
674.070922852,5883.325
674.344482422,5880.5
674.618041992,5886.325
674.891601562,5861.9
675.165100098,5885.1
675.438476562,5874.0
675.711975098,5906.55
675.985412598,5883.675
676.258789062,5849.675
676.532165527,5877.575
676.805480957,5886.55
677.078796387,5882.125
677.352111816,5913.6
677.625366211,5886.075
677.898620605,5870.35
678.171875,5918.825
678.445007324,5883.6
678.718200684,5906.85
678.991394043,5906.325
679.264404297,5929.8
679.537536621,5912.375
679.81060791,5944.125
680.083679199,5942.7
680.356689453,5926.525
680.629699707,5959.075
680.902648926,5919.525
681.175598145,5971.2
681.448547363,5974.025
681.721435547,5938.8
681.99420166,5955.325
682.267150879,5936.825
682.539916992,5971.575
682.812744141,5964.775
683.085510254,5932.65
683.358215332,5954.975
683.63092041,5939.925
683.903625488,5943.325
684.176330566,5905.575
684.448913574,5917.925
684.721557617,5903.8
684.99420166,5961.8
685.266662598,5963.4
685.539245605,5974.375
685.811767578,6009.6
686.084289551,6000.35
686.356689453,6004.75
686.629150391,6018.6
686.901550293,6057.475
687.17401123,6030.675
687.446350098,6049.35
687.718688965,6056.125
687.990966797,6084.225
688.263305664,6089.25
688.535522461,6054.875
688.807739258,6062.3
689.079956055,6113.825
689.352172852,6099.95
689.624328613,6080.0
689.896484375,6112.125
690.168518066,6109.9
690.440612793,6115.85
690.71270752,6138.525
690.984741211,6140.425
691.256713867,6182.325
691.528747559,6169.025
691.800720215,6152.9
692.072631836,6175.0
692.344543457,6215.825
692.616394043,6213.3
692.888244629,6207.675
693.160095215,6242.675
693.431945801,6238.95
693.703674316,6242.85
693.975463867,6244.0
694.247131348,6252.35
694.518859863,6233.85
694.790588379,6280.325
695.062255859,6267.675
695.33380127,6266.875
695.60546875,6276.0
695.87701416,6297.9
696.148498535,6314.2
696.42010498,6346.2
696.691589355,6338.3
696.96307373,6342.075
697.234558105,6390.775
697.50592041,6379.5
697.777282715,6399.025
698.048706055,6384.775
698.320068359,6415.55
698.591308594,6402.55
698.862670898,6389.525
699.133972168,6426.55
699.405151367,6430.8
699.676391602,6456.025
699.947570801,6431.275
700.21875,6434.7
700.489868164,6446.7
700.761047363,6443.125
701.032104492,6480.875
701.303100586,6447.225
701.57421875,6507.275
701.845214844,6505.725
702.116149902,6526.875
702.387207031,6508.5
702.65814209,6502.1
702.928955078,6562.125
703.199951172,6513.225
703.47076416,6504.75
703.741577148,6524.55
704.012451172,6531.95
704.28314209,6551.7
704.553955078,6542.175
704.824707031,6583.75
705.095397949,6582.8
705.366027832,6592.5
705.63671875,6616.1
705.907348633,6592.125
706.17791748,6631.2
706.448486328,6597.225
706.719055176,6638.95
706.989562988,6653.475
707.260131836,6703.575
707.530517578,6693.3
707.800964355,6675.5
708.071411133,6679.95
708.341796875,6690.375
708.612182617,6688.275
708.882446289,6659.05
709.152893066,6688.225
709.423156738,6711.4
709.693359375,6688.525
709.963623047,6718.325
710.233825684,6728.7
710.503967285,6696.175
710.774169922,6703.45
711.044311523,6696.0
711.31439209,6703.875
711.584533691,6734.75
711.854553223,6727.925
712.124572754,6763.8
712.39465332,6727.775
712.664611816,6767.875
712.934509277,6812.175
713.204467773,6796.45
713.474365234,6817.95
713.74420166,6797.625
714.014099121,6786.625
714.283874512,6791.475
714.553710938,6811.575
714.823486328,6805.15
715.093200684,6817.05
715.362915039,6830.425
715.632629395,6818.675
715.902282715,6826.4
716.171875,6822.75
716.441589355,6822.25
716.711181641,6806.275
716.980712891,6829.75
717.250244141,6828.35
717.519775391,6865.2
717.78918457,6883.075
718.058654785,6903.975
718.328125,6941.325
718.597473145,6903.15
718.866882324,6879.325
719.136230469,6922.125
719.405578613,6942.375
719.674865723,6961.85
719.944152832,6934.525
720.213439941,6911.075
720.48260498,6937.75
720.75177002,6958.225
721.020996094,6956.025
721.290100098,6969.4
721.559204102,6963.375
721.828308105,6993.95
722.097351074,6981.425
722.366455078,6945.825
722.635437012,6965.575
722.904418945,6920.65
723.173400879,6993.75
723.442321777,7012.925
723.711181641,6981.175
723.980102539,7032.975
724.248962402,7035.625
724.51776123,7010.225
724.786560059,7020.35
725.055358887,7032.95
725.324035645,7029.975
725.592834473,7055.825
725.86151123,7029.15
726.130187988,7047.7
726.398803711,7030.45
726.667419434,7058.35
726.935974121,7028.5
727.204528809,7042.25
727.473083496,7035.55
727.741638184,7019.725
728.010070801,7008.425
728.278564453,6992.0
728.546936035,6990.975
728.815368652,6990.025
729.08380127,6915.525
729.352111816,6895.35
729.620361328,6860.425
729.88873291,6896.325
730.156982422,6961.4
730.425231934,6953.95
730.693481445,6961.575
730.961669922,7014.875
731.229797363,7036.9
731.49798584,7082.575
731.766113281,7125.0
732.034118652,7165.475
732.302246094,7220.675
732.570251465,7238.85
732.838256836,7261.85
733.106262207,7359.55
733.374145508,7379.05
733.642089844,7414.775
733.909973145,7463.525
734.177856445,7525.45
734.445678711,7618.35
734.713562012,7697.1
734.981323242,7705.825
735.249084473,7753.925
735.516845703,7915.15
735.784545898,7947.7
736.052185059,7977.0
736.319885254,8077.675
736.587524414,8133.25
736.855102539,8166.975
737.122619629,8278.65
737.390197754,8326.2
737.657714844,8407.325
737.925170898,8437.525
738.192749023,8537.4
738.460144043,8622.4
738.727539062,8653.125
738.994995117,8770.125
739.262329102,8844.3
739.529663086,8948.875
739.79699707,8954.075
740.06427002,9044.4
740.331481934,9101.725
740.598754883,9166.275
740.865905762,9182.725
741.133056641,9340.375
741.40032959,9349.05
741.667358398,9411.575
741.934448242,9451.575
742.201599121,9477.925
742.468566895,9543.8
742.735534668,9612.625
743.002563477,9656.975
743.26953125,9627.0
743.536437988,9705.0
743.803405762,9817.925
744.0703125,9779.85
744.337097168,9875.325
744.604003906,9814.65
744.870727539,9886.875
745.137512207,9948.85
745.40423584,9996.0
745.670959473,9985.9
745.93762207,10002.85
746.204284668,10012.7
746.470947266,10079.1
746.737548828,10064.625
747.004089355,10085.3
747.270751953,10129.675
747.53717041,10157.7
747.803710938,10111.2
748.070251465,10120.025
748.336608887,10111.825
748.603027344,10091.85
748.869445801,10098.85
749.135803223,10107.3
749.402099609,10141.475
749.668457031,10128.1
749.934753418,10100.8
750.20098877,10078.775
750.467224121,10160.475
750.733459473,10111.725
750.999572754,10101.325
751.26574707,10038.0
751.531860352,10084.375
751.797912598,10049.4
752.064025879,10001.8
752.330078125,10032.0
752.596069336,10016.725
752.862060547,9992.2
753.127990723,9993.925
753.393920898,9995.825
753.659912109,9989.85
753.925720215,10041.6
754.19152832,9999.525
754.457397461,9934.2
754.723144531,9905.875
754.988952637,9882.975
755.254699707,9940.925
755.520385742,9967.6
755.786071777,9927.5
756.051696777,9926.7
756.317382812,9870.725
756.582946777,9872.275
756.848510742,9869.75
757.114074707,9858.025
757.379577637,9845.15
757.645080566,9913.675
757.910583496,9853.1
758.175964355,9810.075
758.441345215,9824.375
758.706848145,9647.6
758.972106934,9668.475
759.237426758,9698.8
759.502807617,9736.8
759.768005371,9751.175
760.03326416,9734.55
760.298522949,9660.8
760.563659668,9718.075
760.828857422,9715.75
761.093994141,9688.475
761.359130859,9631.875
761.624206543,9619.375
761.889282227,9589.175
762.15423584,9617.275
762.419250488,9620.775
762.684265137,9573.1
762.949157715,9535.75
763.214050293,9556.575
763.479003906,9560.375
763.743835449,9534.075
764.008666992,9537.125
764.2734375,9507.95
764.538208008,9552.15
764.802978516,9598.6
765.067687988,9580.325
765.332397461,9545.45
765.597045898,9531.35
765.861694336,9501.85
766.126342773,9479.75
766.390930176,9485.45
766.655395508,9435.9
766.920043945,9405.875
767.184509277,9411.5
767.448974609,9438.375
767.713439941,9395.7
767.977783203,9367.4
768.2421875,9410.8
768.506591797,9367.975
768.770874023,9480.175
769.03515625,9429.4
769.299499512,9419.825
769.563720703,9409.825
769.827941895,9390.25
770.092163086,9397.675
770.356323242,9374.925
770.620483398,9413.675
770.88458252,9405.575
771.148681641,9388.25
771.412719727,9391.3
771.676757812,9414.775
771.940734863,9361.55
772.204711914,9375.15
772.468688965,9357.75
772.73260498,9325.675
772.996459961,9342.65
773.260314941,8325.975
773.524169922,1072.575
773.787963867,150.3
774.051696777,123.025
774.315551758,121.125
774.579223633,121.475
774.842895508,120.3
775.106567383,122.85
775.370239258,117.9
775.633789062,122.6
775.897399902,124.95
776.160949707,118.3
776.424499512,122.625
776.687988281,125.85
776.951477051,123.875
777.214904785,121.075
777.47833252,120.75
