191.299911499,98.1
191.603515625,103.525
191.907119751,98.275
192.210693359,103.4
192.514251709,99.275
192.817810059,102.475
193.121368408,103.9
193.42489624,105.4
193.728408813,97.4
194.031936646,98.625
194.33543396,93.55
194.638916016,111.5
194.94241333,96.55
195.245880127,97.425
195.549331665,94.725
195.852767944,99.6
196.156204224,193.475
196.459625244,186.625
196.763015747,187.85
197.066436768,196.4
197.369812012,188.85
197.673187256,190.45
197.9765625,184.9
198.279922485,189.275
198.583251953,186.45
198.886581421,189.3
199.18989563,198.5
199.493209839,193.0
199.79649353,183.4
200.09979248,197.825
200.403076172,192.675
200.706314087,194.775
201.009567261,188.25
201.312820435,194.1
201.616027832,182.075
201.919235229,179.925
202.222457886,185.675
202.525634766,186.1
202.828826904,177.55
203.132003784,176.65
203.435150146,183.25
203.738296509,180.575
204.041412354,181.225
204.344558716,180.95
204.647659302,184.85
204.950759888,186.475
205.253845215,184.9
205.556930542,179.25
205.859985352,180.325
206.163024902,184.8
206.466079712,183.5
206.769104004,198.325
207.072113037,188.275
207.375137329,185.875
207.678131104,187.775
207.981109619,188.925
208.284088135,186.05
208.587036133,187.925
208.889984131,191.975
209.19291687,188.775
209.495849609,190.175
209.798751831,192.425
210.101654053,192.9
210.404556274,197.525
210.707427979,188.225
211.010269165,197.55
211.31312561,198.025
211.615982056,199.15
211.918807983,199.65
212.221618652,195.9
212.524429321,196.05
212.827224731,206.3
213.130004883,199.65
213.432769775,200.8
213.735534668,202.025
214.038269043,210.225
214.341003418,208.6
214.643737793,214.35
214.946456909,214.325
215.249145508,217.75
215.551834106,219.85
215.854507446,218.025
216.157165527,213.45
216.45980835,221.95
216.762451172,228.725
217.065078735,230.05
217.36769104,225.2
217.670303345,230.0
217.972885132,232.45
218.275466919,239.025
218.578048706,232.1
218.880599976,247.875
219.183120728,252.2
219.485656738,250.65
219.788192749,273.55
220.090682983,290.0
220.393188477,315.775
220.695663452,355.125
220.998138428,396.4
221.300582886,445.225
221.603042603,493.55
221.905487061,569.1
222.207901001,650.8
222.510299683,730.9
222.812728882,846.1
223.115097046,959.0
223.41746521,1071.35
223.719848633,1204.8
224.022171021,1314.55
224.324508667,1470.725
224.626846313,1629.55
224.929168701,1754.025
225.231460571,1923.3
225.533737183,2079.225
225.836013794,2221.625
226.138290405,2383.65
226.440536499,2539.125
226.742767334,2672.4
227.044998169,2807.325
227.347213745,2973.925
227.649429321,3084.75
227.951629639,3199.25
228.253799438,3347.325
228.555953979,3450.05
228.858123779,3534.225
229.160263062,3660.8
229.462371826,3764.2
229.764511108,3855.8
230.066619873,3918.95
230.36869812,4031.75
230.670776367,4110.9
230.972854614,4211.325
231.274902344,4296.9
231.576950073,4413.125
231.878967285,4491.125
232.180999756,4614.825
232.48298645,4699.3
232.784988403,4804.55
233.086975098,4892.2
233.388946533,4975.875
233.69090271,5062.275
233.992858887,5150.7
234.294769287,5172.6
234.596694946,5251.775
234.898605347,5326.7
235.200500488,5349.1
235.502380371,5387.825
235.804244995,5436.775
236.106109619,5409.25
236.407958984,5425.025
236.709777832,5452.65
237.011581421,5470.45
237.313400269,5445.4
237.615203857,5417.225
237.916976929,5457.3
238.21875,5403.275
238.520507812,5393.65
238.822250366,5383.925
239.12399292,5346.225
239.425704956,5346.825
239.727401733,5287.925
240.02911377,5230.475
240.330780029,5175.625
240.632446289,5165.3
240.93409729,5128.025
241.23576355,5081.9
241.537384033,5043.65
241.839004517,4982.0
242.140594482,4963.35
242.442199707,4894.025
242.743774414,4858.5
243.045333862,4818.2
243.346923828,4758.925
243.648452759,4691.25
243.949966431,4593.575
244.251495361,4549.125
244.552993774,4463.0
244.854492188,4367.025
245.155975342,4277.475
245.457443237,4204.275
245.758880615,4112.1
246.060333252,4018.975
246.36177063,3928.85
246.66317749,3836.65
246.964569092,3739.05
247.265945435,3661.225
247.567337036,3560.3
247.86869812,3511.875
248.170059204,3435.85
248.471389771,3353.675
248.772705078,3282.35
249.074035645,3233.725
249.375335693,3178.6
249.676620483,3146.0
249.977890015,3105.95
250.279159546,3071.85
250.58039856,3040.525
250.881637573,3005.85
251.182876587,2982.05
251.484069824,2956.45
251.785263062,2916.7
252.086456299,2906.725
252.387619019,2869.875
252.688781738,2855.35
252.989929199,2843.275
253.291061401,2833.2
253.592178345,2827.475
253.893280029,2796.725
254.194366455,2788.6
254.49546814,2753.375
254.796524048,2751.475
255.097579956,2735.275
255.398620605,2721.525
255.699645996,2711.125
256.000640869,2688.375
256.30166626,2664.9
256.602661133,2684.375
256.903656006,2659.35
257.204589844,2665.625
257.505523682,2639.25
257.80645752,2617.8
258.107391357,2619.825
258.408294678,2606.55
258.709228516,2580.275
259.010070801,2574.625
259.310943604,2566.8
259.611846924,2547.95
259.912658691,2524.925
260.213500977,2537.975
260.514343262,2521.95
260.815124512,2488.0
261.115936279,2498.9
261.416717529,2512.25
261.717468262,2504.625
262.018218994,2514.6
262.318969727,2517.45
262.619689941,2563.3
262.920410156,2590.225
263.221130371,2647.15
263.521789551,2665.725
263.822479248,2720.925
264.123138428,2759.575
264.42376709,2800.4
264.72442627,2846.7
265.025054932,2873.15
265.325622559,2915.275
265.626251221,2944.05
265.926818848,2977.4
266.227386475,2989.875
266.527954102,3015.0
266.828460693,3061.425
267.12902832,3056.55
267.429534912,3095.025
267.730010986,3105.625
268.030517578,3123.9
268.330993652,3166.575
268.631439209,3192.05
268.931915283,3217.75
269.232299805,3242.625
269.532745361,3265.675
269.8331604,3302.4
270.133544922,3335.625
270.433929443,3388.25
270.734313965,3418.375
271.034637451,3479.675
271.334991455,3525.975
271.635314941,3585.425
271.935638428,3644.025
272.235931396,3737.85
272.536254883,3821.8
272.836486816,3896.95
273.136749268,4001.45
273.437011719,4130.125
273.737213135,4235.125
274.037445068,4335.925
274.337677002,4480.35
274.6378479,4583.75
274.938049316,4730.0
275.238220215,4848.925
275.538360596,5019.65
275.838500977,5125.0
276.138641357,5302.625
276.438751221,5389.1
276.738830566,5507.55
277.03894043,5623.075
277.338989258,5801.825
277.639038086,5933.05
277.939056396,6038.125
278.239105225,6131.6
278.539093018,6235.0
278.839141846,6349.025
279.139129639,6456.175
279.439086914,6582.675
279.739044189,6674.3
280.039001465,6785.225
280.338928223,6873.825
280.63885498,6966.625
280.938781738,7088.475
281.238647461,7134.625
281.538513184,7186.825
281.838409424,7287.475
282.138244629,7372.75
282.438079834,7431.0
282.737945557,7490.4
283.037719727,7522.15
283.337524414,7587.5
283.637298584,7642.3
283.937072754,7685.525
284.236816406,7744.2
284.536560059,7744.25
284.836303711,7805.075
285.136016846,7866.85
285.43572998,7924.2
285.735412598,7881.825
286.035064697,7984.525
286.334747314,8004.975
286.634368896,8042.9
286.933990479,7962.25
287.233642578,7970.575
287.533203125,7976.75
287.832824707,7926.1
288.132385254,7840.3
288.431945801,7738.5
288.731506348,7605.225
289.031036377,7460.875
289.330566406,7365.325
289.630065918,7338.7
289.92956543,7328.25
290.229034424,7443.55
290.528503418,7593.575
290.827941895,7797.3
291.127380371,7948.0
291.42678833,8079.1
291.726226807,8238.2
292.025604248,8251.35
292.324981689,8316.0
292.624359131,8326.875
292.923736572,8325.025
293.223052979,8368.125
293.522369385,8370.225
293.821685791,8328.55
294.12097168,8303.15
294.420257568,8288.05
294.719543457,8248.625
295.018768311,8230.45
295.318023682,8187.775
295.617248535,8125.775
295.916442871,8072.825
296.215667725,7997.175
296.514862061,7862.325
296.813995361,7651.325
297.11315918,7457.475
297.412322998,7284.5
297.711425781,7250.0
298.010559082,7411.175
298.309631348,7642.5
298.608734131,7840.4
298.907806396,8041.0
299.206848145,8207.975
299.505889893,8277.475
299.804901123,8373.875
300.103912354,8451.9
300.402954102,8550.525
300.701904297,8590.625
301.00088501,8672.125
301.299835205,8756.825
301.5987854,8759.45
301.897735596,8858.275
302.196624756,8907.4
302.495513916,9026.625
302.794403076,9013.2
303.093292236,9106.85
303.392120361,9149.65
303.690979004,9227.0
303.989837646,9283.225
304.288604736,9337.425
304.587402344,9309.65
304.886199951,9345.05
305.184967041,9418.8
305.483734131,9437.225
305.782501221,9535.575
306.081176758,9471.925
306.37991333,9554.475
306.678619385,9540.425
306.977294922,9572.2
307.275970459,9584.6
307.574645996,9577.525
307.873260498,9557.7
308.171875,9581.425
308.470489502,9580.95
308.769104004,9498.725
309.067687988,9492.125
309.366241455,9514.825
309.664794922,9450.95
309.963348389,9433.075
310.261871338,9446.9
310.560394287,9475.325
310.858856201,9477.575
311.157348633,9495.1
311.455810547,9537.125
311.754272461,9545.175
312.052703857,9605.575
312.351135254,9657.125
312.649536133,9632.025
312.947937012,9612.2
313.246307373,9639.15
313.544647217,9642.225
313.843017578,9586.575
314.141387939,9549.0
314.439697266,9601.05
314.738006592,9498.325
315.036315918,9457.025
315.334564209,9338.625
315.6328125,9298.55
315.931091309,9211.525
316.229309082,9099.625
316.527526855,8956.85
316.825744629,8930.625
317.123901367,8793.075
317.422088623,8759.0
317.720245361,8774.65
318.0184021,8793.2
318.316497803,8814.5
318.614654541,8880.175
318.912750244,8948.5
319.21081543,8928.35
319.50894165,8975.125
319.806945801,8975.625
320.104980469,8948.25
320.403045654,8978.725
320.701049805,8897.45
320.999023438,8895.475
321.297027588,8875.15
321.595001221,8827.375
321.892913818,8828.975
322.190887451,8744.625
322.488830566,8677.25
322.786712646,8625.2
323.084625244,8526.65
323.382507324,8535.2
323.680358887,8412.65
323.978210449,8323.65
324.276062012,8288.975
324.573852539,8248.475
324.871643066,8171.85
325.169464111,8096.825
325.467224121,8027.6
325.764984131,7957.7
326.062744141,7909.05
326.360473633,7805.175
326.658203125,7738.5
326.955871582,7692.35
327.253570557,7604.575
327.551239014,7540.725
327.848907471,7462.225
328.146514893,7414.625
328.444152832,7329.45
328.741790771,7296.075
329.039367676,7236.025
329.336914062,7162.075
329.634521484,7072.475
329.932067871,7042.15
330.229553223,6974.3
330.527160645,6888.45
330.824615479,6855.725
331.12210083,6775.975
331.419586182,6649.1
331.717041016,6605.4
332.014465332,6504.375
332.311920166,6489.05
332.609313965,6424.375
332.906707764,6423.575
333.204101562,6390.6
333.501495361,6395.4
333.798828125,6449.45
334.096160889,6505.625
334.39352417,6546.725
334.690795898,6591.8
334.988098145,6626.125
335.285400391,6696.05
335.582641602,6700.4
335.879882812,6743.825
336.177124023,6770.8
336.474334717,6807.325
336.77154541,6818.375
337.068725586,6837.925
337.365905762,6859.525
337.66305542,6873.625
337.960205078,6875.45
338.257324219,6903.775
338.554443359,6898.9
338.8515625,6945.55
339.148590088,6930.425
339.445648193,6919.45
339.742736816,6896.85
340.039764404,6881.175
340.336761475,6840.675
340.63381958,6803.925
340.930755615,6738.675
341.227722168,6695.0
341.524688721,6580.4
341.821624756,6538.375
342.118560791,6583.95
342.415496826,6645.75
342.712402344,6784.25
343.009246826,6923.375
343.306121826,7059.75
343.602966309,7122.525
343.899810791,7216.95
344.196624756,7290.2
344.493438721,7307.875
344.79019165,7345.7
345.086975098,7427.675
345.383758545,7473.5
345.680480957,7445.3
345.977203369,7464.4
346.273956299,7532.0
346.570617676,7500.2
346.86730957,7519.125
347.163970947,7489.925
347.460601807,7510.45
347.757232666,7527.175
348.053894043,7513.025
348.350463867,7462.8
348.647064209,7425.0
348.943634033,7411.05
349.24017334,7409.075
349.536712646,7361.025
349.833251953,7374.95
350.129760742,7319.075
350.426208496,7315.225
350.722747803,7311.0
351.019195557,7278.5
351.315612793,7245.4
351.612060547,7203.125
351.908508301,7127.975
352.204864502,7064.5
352.501281738,7030.125
352.797637939,6929.15
353.093963623,6854.0
353.390319824,6781.425
353.686645508,6687.625
353.982940674,6634.0
354.27923584,6580.3
354.575531006,6516.65
354.871765137,6510.45
355.167999268,6467.375
355.464233398,6483.325
355.760437012,6494.275
356.056640625,6470.925
356.352813721,6495.7
356.648956299,6483.35
356.945129395,6487.6
357.241271973,6474.55
357.537384033,6495.475
357.833496094,6437.875
358.129577637,6416.125
358.425628662,6402.525
358.721679688,6353.35
359.017730713,6325.7
359.313720703,6256.125
359.609710693,6272.35
359.905761719,6162.5
360.201721191,6145.125
360.497650146,6060.55
360.793609619,6013.975
361.089538574,5971.525
361.385437012,5882.5
361.681365967,5811.975
361.977233887,5756.075
362.273071289,5694.675
362.568908691,5572.15
362.864746094,5452.375
363.160552979,5323.675
363.456359863,5132.425
363.752166748,4987.35
364.047912598,4907.975
364.343658447,4869.625
364.639434814,4883.575
364.935119629,4913.8
365.230834961,4992.725
365.526550293,5006.125
365.822174072,4995.2
366.117858887,5041.2
366.413482666,5051.25
366.709075928,5076.3
367.004730225,4983.6
367.300292969,4968.275
367.595855713,5024.05
367.891448975,4911.75
368.186981201,4796.6
368.482513428,4729.4
368.778015137,4720.825
369.073547363,4672.425
369.36895752,4690.9
369.664428711,4583.6
369.95993042,4471.275
370.255310059,4413.975
370.550720215,4383.15
370.846160889,4326.55
371.14151001,4293.275
371.436859131,4266.475
371.73223877,4242.75
372.027557373,4200.3
372.322875977,4147.2
372.618164062,4108.625
372.913482666,4056.425
373.208709717,4044.6
373.503967285,3967.4
373.799194336,3929.975
374.094421387,3922.25
374.389648438,3890.7
374.684844971,3881.725
374.979980469,3941.1
375.275146484,3934.025
375.570281982,3936.075
375.865386963,3944.4
376.160522461,3876.475
376.455596924,3895.5
376.750640869,3977.775
377.045715332,3988.8
377.340759277,4020.825
377.635772705,4069.0
377.93081665,4115.325
378.225769043,4159.4
378.520751953,4200.675
378.815734863,4171.425
379.110656738,4318.125
379.405548096,4490.075
379.700500488,4324.65
379.995391846,4109.675
380.290252686,4158.45
380.585083008,4267.9
380.879974365,4288.65
381.17477417,4213.75
381.469543457,4151.3
381.764404297,4125.175
382.059143066,4160.5
382.353912354,4243.3
382.648651123,4319.25
382.943389893,4286.175
383.238067627,4132.675
383.532775879,4132.175
383.827484131,4080.825
384.12210083,4073.175
384.416778564,4010.675
384.711425781,3909.325
385.006011963,3947.425
385.300628662,3930.95
385.595184326,4002.975
385.88973999,4092.05
386.184295654,4201.125
386.478820801,4248.1
386.77331543,4338.725
387.067840576,4430.15
387.362335205,4528.625
387.656768799,4595.6
387.951202393,4612.9
388.245635986,4684.625
388.540039062,4750.8
388.834472656,4811.15
389.128875732,4722.425
389.423187256,4507.075
389.717559814,4446.775
390.011871338,4547.975
390.306182861,4584.55
390.600463867,4592.1
390.894775391,4666.1
391.189025879,4678.45
391.48324585,4660.55
391.777526855,4705.575
392.071685791,4918.35
392.365875244,4998.575
392.660064697,5063.075
392.95425415,5386.325
393.248382568,5364.175
393.542510986,4934.175
393.836608887,4735.475
394.130706787,4760.575
394.424804688,4686.15
394.71887207,4821.9
395.012878418,4786.6
395.306915283,4681.95
395.600921631,4620.45
395.894927979,4603.325
396.188903809,4629.525
396.482879639,4648.25
396.776794434,4845.425
397.070739746,4804.725
397.364654541,4824.925
397.658538818,5197.95
397.952423096,5229.5
398.246307373,5178.175
398.540100098,5684.25
398.833953857,5567.875
399.127746582,5107.6
399.421508789,5106.475
399.715301514,5049.35
400.009063721,4957.5
400.30279541,4835.85
400.596496582,4749.6
400.890258789,4908.475
401.183929443,4987.675
401.47756958,4864.775
401.771240234,4657.75
402.064880371,4689.6
402.35848999,4747.725
402.652130127,4615.125
402.945678711,4699.2
403.239257812,4642.85
403.532775879,4609.9
403.82635498,4638.175
404.119842529,4551.075
404.413360596,4559.325
404.706848145,4603.5
405.000274658,4542.7
405.293762207,4607.625
405.587188721,4678.775
405.880584717,4516.125
406.17401123,4335.175
406.467407227,4150.75
406.760742188,4169.875
407.054107666,4213.6
407.347442627,4132.275
407.640716553,4117.475
407.934051514,4177.225
408.227325439,4241.275
408.520568848,4479.675
408.813842773,4542.3
409.107086182,4341.675
409.400238037,4306.85
409.693450928,4230.775
409.986633301,4369.075
410.279754639,4281.425
410.572875977,4001.425
410.86605835,3937.175
411.159118652,3960.875
411.452209473,3942.025
411.745330811,3827.7
412.038360596,3759.725
412.331390381,3791.025
412.624420166,3836.1
412.917388916,3749.925
413.210388184,3570.9
413.503387451,3546.175
413.796295166,3448.975
414.089233398,3270.45
414.382141113,3211.925
414.675048828,3201.8
414.967926025,3220.8
415.260803223,3176.125
415.55368042,3201.15
415.846466064,3164.275
416.139282227,3259.625
416.432098389,3365.2
416.724853516,3359.675
417.017608643,3303.1
417.31036377,3312.05
417.603088379,3451.55
417.895782471,3411.25
418.188476562,3396.375
418.481140137,3465.05
418.773803711,3519.8
419.066436768,3502.45
419.359039307,3572.2
419.651641846,3571.925
419.944244385,3566.275
420.236816406,3534.75
420.529327393,3748.75
420.821899414,3830.25
421.114379883,3760.025
421.406860352,3995.55
421.699371338,4239.5
421.991821289,4201.95
422.284240723,3979.825
422.576721191,3849.15
422.869110107,3755.35
423.161468506,3695.65
423.453857422,3725.975
423.74621582,3606.35
424.038543701,3469.075
424.330871582,3449.15
424.623168945,3384.775
424.915435791,3531.65
425.207702637,3478.95
425.499969482,3438.075
425.792205811,3382.5
426.084411621,3132.125
426.376617432,3213.925
426.668762207,3272.15
426.9609375,3174.125
427.253082275,3293.325
427.545196533,3690.975
427.837310791,3427.65
428.129425049,3140.0
428.421447754,3352.025
428.713531494,3354.725
429.005554199,3354.95
429.297576904,3360.45
429.589599609,3770.675
429.881561279,4090.425
430.173522949,3889.35
430.465484619,3841.175
430.757415771,3911.325
431.049316406,3673.325
431.341186523,3456.925
431.633117676,3363.95
431.924957275,3066.2
432.21673584,2943.15
432.508636475,3097.925
432.800415039,3123.35
433.092163086,3006.95
433.383972168,2997.65
433.675689697,3698.95
433.967437744,4211.625
434.259155273,3239.275
434.550872803,2915.125
434.842498779,2980.45
435.134185791,3114.175
435.425842285,3147.3
435.717437744,3049.075
436.009063721,2855.55
436.30065918,2998.775
436.592224121,3362.45
436.883758545,3150.8
437.175323486,2885.85
437.466827393,2871.275
437.758331299,2881.4
438.049804688,2914.475
438.341247559,2974.625
438.63269043,3054.775
438.924163818,3043.925
439.215515137,2991.8
439.50692749,2899.0
439.798309326,2914.325
440.089660645,2914.8
440.380981445,2818.675
440.672332764,2829.375
440.963623047,3092.225
441.254882812,3559.875
441.546173096,3743.6
441.837402344,3488.325
442.128631592,3294.275
442.41986084,3283.375
442.711029053,3146.125
443.002197266,3221.875
443.293365479,3413.15
443.584503174,3549.375
443.875610352,3514.225
444.166717529,3247.95
444.457794189,3312.775
444.748840332,3274.65
445.039916992,3241.675
445.330932617,3341.1
445.621948242,3189.275
445.912963867,2993.275
446.203918457,3210.8
446.494812012,3452.1
446.785827637,3244.725
447.076721191,3066.9
447.367584229,3048.925
447.658447266,3013.2
447.949371338,3085.775
448.24017334,2955.65
448.530975342,2876.65
448.821838379,3059.025
449.112579346,3119.8
449.40335083,3056.3
449.694152832,3095.925
449.984863281,3097.05
450.27557373,3023.5
450.56628418,3099.15
450.856933594,3102.3
451.147583008,2942.325
451.438262939,2859.625
451.728881836,3053.575
452.019470215,3150.875
452.310089111,2938.35
452.600646973,2966.75
452.891174316,3021.325
453.181732178,2819.6
453.472229004,2703.4
453.762695312,2828.925
454.053222656,2849.875
454.343658447,2719.775
454.634063721,2659.325
454.924530029,2833.4
455.214935303,2986.1
455.505279541,3051.75
455.795715332,2897.65
456.086029053,2703.95
456.376312256,2685.9
456.666687012,2719.8
456.956939697,2828.925
457.247192383,2831.35
457.537445068,2909.225
457.827728271,3108.425
458.117919922,3016.575
458.408081055,2934.1
458.698303223,3123.675
458.988433838,3061.875
459.278564453,2886.5
459.568725586,3172.55
459.858825684,3290.0
460.148864746,2959.65
460.438995361,2930.025
460.729034424,2971.425
461.019042969,3001.8
461.309082031,3192.025
461.599060059,3078.975
461.889007568,2601.075
462.179016113,2426.7
462.468933105,2660.3
462.75881958,2785.6
463.048736572,2519.05
463.338592529,2798.875
463.628448486,3155.55
463.918365479,2848.725
464.2081604,3031.5
464.497924805,2986.025
464.787780762,3111.575
465.077514648,3432.1
465.367218018,3037.65
465.657012939,3240.1
465.946685791,3669.325
466.236358643,3257.975
466.526092529,2708.35
466.815734863,2705.475
467.105316162,2629.925
467.394927979,2667.85
467.684570312,2519.95
467.974121094,2611.8
468.263671875,2719.075
468.553222656,2502.675
468.842773438,2396.375
469.132232666,2286.475
469.42175293,2305.7
469.711212158,2286.875
470.000640869,2155.95
470.290100098,2218.175
470.579498291,2254.625
470.868835449,2258.625
471.158294678,2213.75
471.447601318,2205.85
471.736907959,2263.175
472.026275635,2352.375
472.315551758,2330.125
472.604797363,2319.325
472.894104004,2446.4
473.183319092,2576.5
473.47253418,2559.5
473.761779785,2559.05
474.05090332,2475.075
474.340087891,2431.725
474.629241943,2356.025
474.918365479,2530.725
475.207427979,2833.325
475.496551514,2847.65
475.785614014,2569.425
476.074645996,2371.45
476.363708496,2461.275
476.652679443,2601.025
476.941650391,2433.7
477.230682373,2264.025
477.519622803,2274.425
477.808502197,2435.475
478.097412109,2701.25
478.386352539,2642.525
478.675201416,2377.225
478.964050293,2271.55
479.25289917,2474.025
479.541717529,2540.175
479.830474854,2367.225
480.11932373,2728.95
480.408050537,2920.425
480.696777344,2523.075
480.985534668,2375.175
481.274200439,2482.75
481.562866211,2727.75
481.851593018,2756.925
482.140197754,2688.75
482.428833008,2534.525
482.717468262,2327.725
483.006011963,2358.55
483.294586182,2479.25
483.5831604,2517.35
483.871673584,2389.6
484.16015625,2521.725
484.448699951,2780.725
484.7371521,2825.75
485.02557373,2827.65
485.314025879,2553.3
485.602416992,3954.05
485.890777588,13979.7
486.179199219,12497.775
486.467559814,3352.025
486.755859375,2443.55
487.044219971,2850.6
487.332519531,3050.875
487.620758057,2609.075
487.908966064,2352.375
488.197265625,2120.65
488.485473633,2024.1
488.773651123,2154.975
489.061859131,2133.85
489.350006104,2092.65
489.638122559,2029.775
489.926300049,2066.225
490.214355469,2002.35
490.502441406,1955.825
490.790527344,1888.775
491.078552246,2084.75
491.366546631,2101.775
491.654602051,1840.025
491.942565918,1916.5
492.230499268,1964.65
492.518493652,1943.375
492.806396484,1958.275
493.094268799,1874.75
493.382202148,1911.675
493.670074463,2040.35
493.957885742,1877.475
494.245727539,1878.625
494.533508301,2041.875
494.821289062,1938.475
495.109100342,1769.7
495.396850586,1727.75
495.684539795,1677.65
495.972290039,1915.5
496.25994873,2268.475
496.547607422,2271.3
496.835296631,2080.0
497.122894287,1732.8
497.410522461,1653.45
497.6980896,1654.95
497.985687256,1620.05
498.273223877,1727.0
498.560760498,1809.825
498.848266602,1830.7
499.135772705,1803.975
499.423217773,1841.75
499.710693359,1959.65
499.998138428,1895.675
500.285522461,1714.775
500.572937012,1635.95
500.860290527,1713.275
501.147644043,1806.5
501.434997559,2063.125
501.722290039,1908.425
502.00958252,1654.875
502.296875,1944.6
502.584106445,1925.925
502.871337891,1732.85
503.158599854,1812.7
503.445770264,1893.425
503.732910156,1883.55
504.020141602,1682.95
504.307220459,1649.95
504.594329834,1683.7
504.881469727,1620.925
505.168518066,1705.1
505.455535889,1767.925
505.742614746,1656.375
506.029632568,1575.0
506.316589355,1778.1
506.603637695,1865.375
506.890563965,1662.5
507.177459717,1478.65
507.464385986,1385.975
507.751312256,1627.575
508.038146973,1733.6
508.325012207,1566.675
508.611877441,1643.375
508.898681641,1642.7
509.185424805,1469.825
509.472259521,1430.65
509.759002686,1523.7
510.045715332,1547.5
510.332458496,1503.25
510.619140625,1562.825
510.905761719,1470.15
511.192504883,1459.125
511.479095459,1510.05
511.765686035,1447.625
512.052307129,1364.4
512.338928223,1304.55
512.625427246,1369.825
512.91204834,1437.4
513.198486328,1400.1
513.484985352,1379.1
513.77142334,1296.35
514.057922363,1347.725
514.344299316,1341.85
514.63079834,1290.85
514.917175293,1283.45
515.203552246,1187.3
515.489868164,1167.9
515.776245117,1284.425
516.0625,1339.55
516.348815918,1244.175
516.635070801,1277.35
516.921325684,1327.425
517.207580566,1266.75
517.493774414,1164.325
517.779968262,1179.725
518.066101074,1210.925
518.352294922,1169.775
518.638366699,1165.4
518.924499512,1250.75
519.210632324,1325.35
519.496643066,1300.05
519.782714844,1185.775
520.068786621,1147.95
520.354736328,1107.525
520.640686035,1062.45
520.926757812,1108.8
521.212646484,1203.425
521.498535156,1210.6
521.784484863,1155.65
522.0703125,1067.775
522.356262207,1097.65
522.642089844,1169.875
522.927856445,1172.275
523.213684082,1163.775
523.499511719,1145.875
523.78527832,1190.925
524.070983887,1254.3
524.356750488,1210.775
524.64239502,1182.6
524.928039551,1173.675
525.213806152,1193.925
525.499389648,1169.325
525.784973145,1204.1
526.070617676,1262.475
526.356140137,1226.65
526.641723633,1218.475
526.927307129,1292.775
527.212768555,1303.1
527.498291016,1272.8
527.783752441,1278.65
528.069213867,1260.65
528.354675293,1282.75
528.640014648,1451.85
528.925476074,1528.175
529.21081543,1445.0
529.496154785,1409.625
529.781555176,1386.65
530.066833496,1401.75
530.352050781,1431.075
530.637390137,1400.4
530.922607422,1391.925
531.207824707,1403.775
531.493041992,1386.2
531.778198242,1449.275
532.063354492,1438.925
532.348571777,1381.35
532.633666992,1402.925
532.918762207,1479.425
533.203857422,1562.0
533.488891602,1596.35
533.773925781,1549.775
534.059020996,1513.275
534.343933105,1545.65
534.628967285,1530.75
534.91394043,1538.4
535.198852539,1552.875
535.483703613,1515.15
535.768676758,1464.275
536.053527832,1476.775
536.338317871,1418.15
536.62322998,1340.7
536.90802002,1327.85
537.192810059,1338.525
537.477539062,1435.35
537.762329102,1484.15
538.047058105,1525.05
538.331726074,1560.0
538.616455078,1533.65
538.901123047,1509.8
539.18572998,1569.4
539.470397949,1556.85
539.755004883,1554.975
540.039550781,1512.55
540.32409668,1466.075
540.608703613,1506.4
540.893188477,1615.975
541.17767334,1631.275
541.462158203,1633.875
541.746643066,1589.9
542.031066895,1610.625
542.315429688,1669.15
542.59979248,1658.8
542.884216309,1640.775
543.168579102,1640.025
543.452941895,1653.675
543.737243652,1702.65
544.021484375,1756.85
544.305725098,1739.625
544.590026855,1706.4
544.874267578,1732.7
545.158447266,1807.25
545.442626953,1702.75
545.726806641,1589.5
546.010925293,1635.575
546.29510498,1672.45
546.579162598,1666.425
546.863220215,1699.975
547.147277832,1779.275
547.431335449,1863.25
547.715332031,1930.575
547.999328613,2041.125
548.283325195,2041.6
548.567260742,1896.625
548.851135254,1856.4
549.135070801,1834.85
549.419006348,1732.925
549.702819824,1819.625
549.986755371,1917.225
550.270507812,1864.175
550.554321289,1919.2
550.83807373,1923.55
551.121826172,1884.6
551.405517578,1883.375
551.689331055,2027.15
551.973022461,2255.85
552.256652832,2331.275
552.540344238,2228.95
552.823974609,2194.475
553.107543945,2182.7
553.391174316,2243.625
553.674743652,2309.975
553.958251953,2318.4
554.241821289,2325.5
554.525268555,2263.15
554.808776855,2246.8
555.092285156,2464.175
555.375671387,2543.95
555.659057617,2530.0
555.942504883,2580.375
556.225891113,2604.975
556.509216309,2570.0
556.792541504,2470.025
557.075866699,2532.375
557.359130859,2581.375
557.64239502,2578.775
557.92565918,2666.75
558.208862305,2655.15
558.49206543,2580.8
558.77532959,2596.45
559.058410645,2644.475
559.341552734,2636.525
559.624694824,2690.275
559.907775879,2772.35
560.190856934,2891.9
560.473937988,2889.825
560.756896973,2919.575
561.039978027,2966.6
561.322937012,2914.525
561.605895996,2919.15
561.88885498,2861.4
562.171813965,2861.95
562.454650879,2855.075
562.737548828,2893.25
563.020446777,2972.85
563.303283691,2984.7
563.58605957,3017.475
563.868896484,3050.65
564.151672363,3095.525
564.434387207,3136.225
564.717163086,3094.625
564.99987793,3143.05
565.282531738,3212.325
565.565185547,3135.275
565.847839355,3157.275
566.130432129,3284.875
566.413085938,3242.225
566.695678711,3264.65
566.978149414,3384.475
567.260681152,3542.3
567.543273926,3601.3
567.825744629,3508.175
568.108154297,3538.25
568.390686035,3691.275
568.673095703,3803.225
568.955505371,3864.0
569.237854004,3882.9
569.520202637,4155.475
569.802490234,4392.725
570.084838867,4372.75
570.367126465,4203.975
570.649414062,4199.85
570.93170166,4608.125
571.213928223,4655.825
571.496154785,4399.45
571.778381348,4645.85
572.06048584,4924.475
572.342590332,4439.2
572.624755859,4073.0
572.906860352,4130.425
573.188903809,4835.85
573.470947266,5108.425
573.752990723,4858.55
574.03503418,4960.5
574.317016602,5392.0
574.598937988,5144.175
574.88092041,5007.25
575.162841797,5200.0
575.444763184,4809.825
575.726623535,4550.55
576.008483887,4568.225
576.290344238,5005.95
576.572143555,5227.35
576.853881836,5270.625
577.135681152,5177.725
577.417419434,5256.0
577.699157715,6154.5
577.980895996,6341.575
578.262573242,5665.35
578.544128418,5137.9
578.825866699,5078.4
579.107421875,4745.05
579.388977051,4942.15
579.670593262,5341.325
579.952148438,5165.375
580.233642578,5268.45
580.515197754,5394.025
580.796691895,5073.325
581.078125,5270.55
581.359619141,6824.15
581.640991211,6935.45
581.922363281,6003.75
582.203796387,6051.075
582.485107422,5660.375
582.766418457,5228.45
583.047790527,5084.25
583.329040527,4960.925
583.610290527,4815.8
583.891540527,4956.775
584.172790527,5265.5
584.453918457,5279.35
584.735107422,5330.4
585.016235352,5803.275
585.297363281,5782.15
585.578552246,5553.4
585.859619141,5525.525
586.140625,5247.875
586.421630859,5126.95
586.702697754,5156.35
586.983642578,5393.9
587.264648438,5589.05
587.545654297,5500.375
587.826477051,5448.075
588.107421875,5253.0
588.388305664,5299.475
588.669189453,5390.625
588.950012207,5237.5
589.230834961,5130.575
589.511657715,5218.6
589.792358398,5292.75
590.073120117,5326.075
590.353881836,5285.975
590.63458252,5301.5
590.915283203,5265.425
591.195922852,5251.175
591.4765625,5298.1
591.757202148,5307.1
592.037780762,5320.25
592.31829834,5318.825
592.598937988,5549.8
592.879394531,5699.525
593.159912109,5614.525
593.440429688,5560.2
593.720825195,5528.875
594.001281738,5503.475
594.281677246,5423.1
594.562072754,5437.9
594.842407227,5546.75
595.122802734,5589.3
595.403137207,5556.6
595.683410645,5532.475
595.963623047,5522.2
596.243896484,5464.25
596.524169922,5489.975
596.804382324,5474.7
597.084533691,5515.9
597.364746094,5541.45
597.644836426,5565.4
597.924987793,5537.925
598.205078125,5494.675
598.485107422,5541.775
598.765197754,5652.8
599.045227051,5726.225
599.325195312,5607.3
599.605224609,5589.65
599.885192871,5599.25
600.165100098,5663.7
600.445007324,5606.7
600.724914551,5604.425
601.004760742,5622.525
601.284667969,5636.9
601.56451416,5590.0
601.844238281,5617.475
602.124084473,5604.7
602.403808594,5604.35
602.683532715,5639.75
602.963256836,5629.55
603.242919922,5665.25
603.522583008,5715.375
603.802246094,5665.8
604.081848145,5633.925
604.36138916,5640.425
604.641052246,5638.825
604.920532227,5616.125
605.200073242,5656.55
605.479614258,5683.225
605.759094238,5712.6
606.038574219,5699.925
606.317932129,5652.15
606.597412109,5642.15
606.87677002,5668.125
607.15612793,5699.875
607.435546875,5684.25
607.714782715,5698.175
607.99407959,5664.85
608.273376465,5658.75
608.552612305,5662.5
608.831848145,5671.225
609.111083984,5658.6
609.390258789,5648.65
609.669433594,5656.575
609.948608398,5707.65
610.227722168,5689.575
610.506713867,5637.85
610.785888672,5643.275
611.064880371,5621.0
611.34387207,5660.275
611.622924805,5670.35
611.901916504,5653.725
612.180847168,5625.875
612.459777832,5608.075
612.738647461,5603.45
613.01751709,5601.5
613.296447754,5525.275
613.575317383,5495.55
613.854064941,5430.6
614.132873535,5368.975
614.411621094,5294.1
614.690368652,5265.975
614.969177246,5206.225
615.247802734,5126.65
615.526489258,5113.45
615.805175781,4989.5
616.08380127,4871.55
616.362365723,4784.125
616.640991211,4735.575
616.919555664,4673.925
617.198059082,4811.425
617.4765625,5068.425
617.755126953,5228.975
618.033569336,5262.125
618.311950684,5261.8
618.590454102,5241.575
618.868774414,5210.975
619.147155762,5221.825
619.425598145,5197.95
619.703857422,5217.55
619.982177734,5223.8
620.260498047,5230.25
620.538757324,5207.45
620.816955566,5184.025
621.095214844,5122.8
621.373413086,5131.6
621.651550293,5183.875
621.929748535,5222.275
622.207824707,5215.55
622.485900879,5233.475
622.764038086,5221.975
623.042053223,5248.575
623.320007324,5285.5
623.598083496,5283.2
623.876037598,5250.35
624.153991699,5266.8
624.432006836,5295.375
624.709838867,5310.45
624.987731934,5291.3
625.265563965,5292.425
625.543395996,5294.775
625.821228027,5354.775
626.098999023,5344.625
626.376831055,5401.8
626.654541016,5413.45
626.932250977,5458.525
627.209960938,5502.65
627.487670898,5514.8
627.765319824,5526.8
628.04296875,5528.925
628.320495605,5533.85
628.598083496,5534.35
628.875671387,5570.6
629.153259277,5608.625
629.430725098,5626.625
629.708251953,5654.025
629.985656738,5653.175
630.263122559,5702.3
630.540588379,5727.875
630.817932129,5760.85
631.095275879,5795.25
631.372680664,5833.5
631.649963379,5872.625
631.927246094,5909.875
632.204589844,5925.05
632.481811523,5979.125
632.759033203,6078.575
633.036254883,6093.9
633.313415527,6176.15
633.590576172,6213.2
633.867736816,6330.125
634.144836426,6384.325
634.421875,6442.2
634.698913574,6501.95
634.976013184,6545.325
635.252990723,6628.625
635.529968262,6650.375
635.807006836,6719.275
636.08392334,6695.05
636.360839844,6611.775
636.637756348,6532.5
636.914611816,6487.375
637.191467285,6474.6
637.468261719,6566.475
637.745056152,6497.525
638.021789551,6493.825
638.298583984,6559.65
638.575317383,6606.3
638.851989746,6581.45
639.12878418,6615.1
639.405395508,6597.625
639.682006836,6614.075
639.958618164,6647.675
640.235229492,6586.125
640.511779785,6648.95
640.788330078,6613.175
641.064880371,6617.75
641.341308594,6598.775
641.617797852,6609.975
641.894226074,6619.2
642.170654297,6620.875
642.44708252,6631.2
642.723388672,6618.875
642.999755859,6609.425
643.276123047,6631.275
643.552429199,6608.975
643.828674316,6610.95
644.104919434,6609.375
644.381164551,6579.775
644.657348633,6599.375
644.933532715,6561.475
645.209716797,6601.15
645.485839844,6583.525
645.761901855,6580.975
646.038024902,6572.825
646.314086914,6606.6
646.590087891,6569.425
646.866149902,6609.55
647.142150879,6570.275
647.41809082,6538.125
647.694030762,6558.05
647.969970703,6501.15
648.245788574,6538.2
648.521728516,6548.725
648.797546387,6509.675
649.073303223,6551.45
649.349182129,6522.675
649.624938965,6489.85
649.900634766,6531.975
650.176391602,6526.15
650.452087402,6516.4
650.727783203,6507.025
651.003479004,6514.5
651.279052734,6555.325
651.554626465,6493.5
651.83026123,6480.9
652.105773926,6542.925
652.381286621,6489.925
652.656860352,6491.2
652.932312012,6514.225
653.207763672,6497.875
653.483215332,6559.8
653.758605957,6522.4
654.033935547,6520.625
654.309326172,6521.075
654.584716797,6579.275
654.859985352,6514.025
655.135253906,6583.4
655.410583496,6595.0
655.685791016,7586.825
655.9609375,11814.775
656.236206055,11585.325
656.511291504,7653.5
656.786437988,6759.55
657.061645508,6619.3
657.336669922,6603.775
657.611694336,6653.425
657.886779785,6673.0
658.161804199,6687.05
658.436828613,6646.375
658.711791992,6656.75
658.986755371,6687.85
659.261657715,6684.75
659.536621094,6703.5
659.811401367,6705.975
660.086303711,6730.5
660.36114502,6709.825
660.635864258,6720.625
660.910644531,6746.75
661.185424805,6746.475
661.460205078,6797.125
661.734863281,6777.5
662.009521484,6783.475
662.284179688,6777.375
662.558776855,6817.325
662.833435059,6866.725
663.108032227,6869.575
663.382568359,6827.625
663.657043457,6895.925
663.93157959,6915.0
664.206054688,6907.775
664.48046875,6935.6
664.755004883,6968.5
665.02935791,6961.55
665.303710938,6996.625
665.578125,7017.45
665.852416992,7019.075
666.126708984,7030.0
666.401062012,7047.475
666.675292969,7093.7
666.949462891,7104.6
667.223754883,7099.1
667.497924805,7120.0
667.772094727,7104.35
668.046264648,7100.05
668.3203125,7132.75
668.594421387,7186.825
668.868469238,7193.65
669.14251709,7206.2
669.416503906,7225.4
669.690551758,7217.1
669.964477539,7240.175
670.23840332,7234.65
670.512329102,7247.925
670.786254883,7233.95
671.060058594,7285.825
671.333984375,7322.675
671.607788086,7318.25
671.881530762,7325.475
672.155334473,7342.375
672.429077148,7365.175
672.702758789,7393.275
672.97644043,7370.4
673.25012207,7393.825
673.523742676,7370.35
673.797302246,7379.1
674.070922852,7466.5
674.344482422,7462.85
674.618041992,7461.825
674.891601562,7457.4
675.165100098,7481.7
675.438476562,7480.025
675.711975098,7507.3
675.985412598,7475.025
676.258789062,7471.05
676.532165527,7541.625
676.805480957,7506.825
677.078796387,7556.375
677.352111816,7578.8
677.625366211,7559.6
677.898620605,7533.35
678.171875,7600.1
678.445007324,7570.025
678.718200684,7615.7
678.991394043,7602.175
679.264404297,7598.5
679.537536621,7666.525
679.81060791,7637.85
680.083679199,7669.575
680.356689453,7663.6
680.629699707,7676.025
680.902648926,7650.9
681.175598145,7724.35
681.448547363,7766.7
681.721435547,7696.8
681.99420166,7708.575
682.267150879,7715.325
682.539916992,7800.275
682.812744141,7770.9
683.085510254,7753.175
683.358215332,7776.025
683.63092041,7752.625
683.903625488,7788.525
684.176330566,7773.75
684.448913574,7729.975
684.721557617,7737.3
684.99420166,7809.725
685.266662598,7806.075
685.539245605,7812.025
685.811767578,7846.825
686.084289551,7867.475
686.356689453,7911.925
686.629150391,7926.075
686.901550293,7926.625
687.17401123,7964.45
687.446350098,7992.075
687.718688965,7967.15
687.990966797,8029.125
688.263305664,8013.725
688.535522461,7987.075
688.807739258,7985.375
689.079956055,8045.5
689.352172852,8070.2
689.624328613,8066.625
689.896484375,8077.0
690.168518066,8083.775
690.440612793,8105.35
690.71270752,8117.575
690.984741211,8129.625
691.256713867,8161.45
691.528747559,8157.775
691.800720215,8195.3
692.072631836,8202.25
692.344543457,8241.1
692.616394043,8233.6
692.888244629,8239.1
693.160095215,8289.775
693.431945801,8300.3
693.703674316,8287.025
693.975463867,8248.175
694.247131348,8325.1
694.518859863,8287.875
694.790588379,8374.1
695.062255859,8343.575
695.33380127,8346.475
695.60546875,8346.05
695.87701416,8367.1
696.148498535,8391.575
696.42010498,8442.675
696.691589355,8459.725
696.96307373,8449.2
697.234558105,8495.65
697.50592041,8478.85
697.777282715,8502.125
698.048706055,8515.15
698.320068359,8547.625
698.591308594,8533.45
698.862670898,8555.4
699.133972168,8621.525
699.405151367,8560.4
699.676391602,8610.475
699.947570801,8578.5
700.21875,8616.9
700.489868164,8609.3
700.761047363,8624.325
701.032104492,8674.725
701.303100586,8630.3
701.57421875,8694.7
701.845214844,8717.025
702.116149902,8723.9
702.387207031,8715.375
702.65814209,8723.125
702.928955078,8760.125
703.199951172,8726.025
703.47076416,8705.325
703.741577148,8694.675
704.012451172,8747.4
704.28314209,8748.775
704.553955078,8734.875
704.824707031,8786.15
705.095397949,8799.8
705.366027832,8794.1
705.63671875,8855.875
705.907348633,8790.125
706.17791748,8820.55
706.448486328,8841.825
706.719055176,8897.625
706.989562988,8900.175
707.260131836,8923.9
707.530517578,8937.225
707.800964355,8935.7
708.071411133,8901.0
708.341796875,8931.175
708.612182617,8915.55
708.882446289,8897.475
709.152893066,8921.8
709.423156738,8941.35
709.693359375,8880.6
709.963623047,8921.525
710.233825684,8952.85
710.503967285,8903.85
710.774169922,8934.15
711.044311523,8918.025
711.31439209,8924.475
711.584533691,8956.975
711.854553223,8964.125
712.124572754,8961.9
712.39465332,8952.7
712.664611816,8977.05
712.934509277,9037.825
713.204467773,9015.075
713.474365234,9043.5
713.74420166,8986.675
714.014099121,9012.9
714.283874512,8985.7
714.553710938,9044.25
714.823486328,9046.175
715.093200684,9031.125
715.362915039,9037.0
715.632629395,9021.425
715.902282715,9013.525
716.171875,8980.2
716.441589355,9000.45
716.711181641,8972.325
716.980712891,9029.325
717.250244141,9034.275
717.519775391,9027.375
717.78918457,9035.7
718.058654785,9092.575
718.328125,9121.225
718.597473145,9064.775
718.866882324,9051.475
719.136230469,9098.525
719.405578613,9105.05
719.674865723,9100.7
719.944152832,9071.375
720.213439941,9059.95
720.48260498,9098.775
720.75177002,9116.825
721.020996094,9132.775
721.290100098,9123.6
721.559204102,9098.9
721.828308105,9143.4
722.097351074,9125.35
722.366455078,9110.275
722.635437012,9067.85
722.904418945,9044.325
723.173400879,9103.025
723.442321777,9117.9
723.711181641,9062.825
723.980102539,9132.45
724.248962402,9106.65
724.51776123,9103.975
724.786560059,9115.65
725.055358887,9119.45
725.324035645,9097.275
725.592834473,9104.175
725.86151123,9081.85
726.130187988,9085.8
726.398803711,9077.875
726.667419434,9123.7
726.935974121,9098.675
727.204528809,9055.775
727.473083496,9057.975
727.741638184,9043.425
728.010070801,8981.15
728.278564453,9014.325
728.546936035,9012.6
728.815368652,8929.125
729.08380127,8877.65
729.352111816,8811.25
729.620361328,8767.2
729.88873291,8806.075
730.156982422,8888.4
730.425231934,8866.95
730.693481445,8889.05
730.961669922,8940.9
731.229797363,8976.25
731.49798584,8997.225
731.766113281,9057.45
732.034118652,9137.425
732.302246094,9160.1
732.570251465,9212.65
732.838256836,9197.575
733.106262207,9323.4
733.374145508,9367.275
733.642089844,9408.75
733.909973145,9428.375
734.177856445,9531.7
734.445678711,9613.275
734.713562012,9725.975
734.981323242,9738.175
735.249084473,9775.35
735.516845703,9957.325
735.784545898,10024.275
736.052185059,10057.8
736.319885254,10140.5
736.587524414,10182.675
736.855102539,10223.4
737.122619629,10353.6
737.390197754,10400.675
737.657714844,10499.85
737.925170898,10552.575
738.192749023,10654.025
738.460144043,10721.5
738.727539062,10762.25
738.994995117,10875.55
739.262329102,10917.925
739.529663086,11105.125
739.79699707,11135.725
740.06427002,11198.275
740.331481934,11272.475
740.598754883,11318.4
740.865905762,11345.075
741.133056641,11509.825
741.40032959,11528.45
741.667358398,11609.65
741.934448242,11605.95
742.201599121,11640.875
742.468566895,11793.1
742.735534668,11793.4
743.002563477,11830.9
743.26953125,11818.05
743.536437988,11879.95
743.803405762,11968.275
744.0703125,11920.3
744.337097168,12037.45
744.604003906,11964.075
744.870727539,12071.925
745.137512207,12146.125
745.40423584,12153.325
745.670959473,12109.925
745.93762207,12136.0
746.204284668,12156.65
746.470947266,12177.725
746.737548828,12173.55
747.004089355,12216.3
747.270751953,12220.8
747.53717041,12269.775
747.803710938,12176.025
748.070251465,12154.075
748.336608887,12181.05
748.603027344,12137.45
748.869445801,12109.125
749.135803223,12153.5
749.402099609,12154.45
749.668457031,12170.575
749.934753418,12118.3
750.20098877,12076.7
750.467224121,12108.1
750.733459473,12103.975
750.999572754,12051.375
751.26574707,11974.05
751.531860352,12017.25
751.797912598,11990.325
752.064025879,11908.875
752.330078125,11934.6
752.596069336,11923.25
752.862060547,11873.8
753.127990723,11879.825
753.393920898,11841.425
753.659912109,11812.675
753.925720215,11870.675
754.19152832,11836.175
754.457397461,11766.975
754.723144531,11711.85
754.988952637,11669.6
755.254699707,11688.1
755.520385742,11709.45
755.786071777,11731.5
756.051696777,11681.0
756.317382812,11617.225
756.582946777,11601.475
756.848510742,11605.225
757.114074707,11559.45
757.379577637,11537.825
757.645080566,11618.2
757.910583496,11595.325
758.175964355,11512.25
758.441345215,11453.525
758.706848145,11324.225
758.972106934,11326.475
759.237426758,11336.575
759.502807617,11374.475
759.768005371,11346.35
760.03326416,11318.8
760.298522949,11240.1
760.563659668,11253.975
760.828857422,11259.425
761.093994141,11229.675
761.359130859,11159.85
761.624206543,11149.05
761.889282227,11099.85
762.15423584,11103.925
762.419250488,11078.775
762.684265137,11039.175
762.949157715,11056.375
763.214050293,11011.25
763.479003906,11014.275
763.743835449,10990.875
764.008666992,10953.775
764.2734375,10952.875
764.538208008,10957.05
764.802978516,10983.725
765.067687988,10965.55
765.332397461,10952.5
765.597045898,10913.625
765.861694336,10884.675
766.126342773,10841.275
766.390930176,10797.475
766.655395508,10745.275
766.920043945,10723.975
767.184509277,10716.975
767.448974609,10739.875
767.713439941,10710.425
767.977783203,10671.925
768.2421875,10723.075
768.506591797,10647.475
768.770874023,10750.5
769.03515625,10691.325
769.299499512,10698.2
769.563720703,10664.1
769.827941895,10614.775
770.092163086,10606.1
770.356323242,10586.725
770.620483398,10622.65
770.88458252,10611.925
771.148681641,10602.85
771.412719727,10589.75
771.676757812,10577.425
771.940734863,10519.975
772.204711914,10504.85
772.468688965,10467.7
772.73260498,10504.7
772.996459961,10478.65
773.260314941,9362.5
773.524169922,1192.15
773.787963867,152.8
774.051696777,121.9
774.315551758,120.7
774.579223633,120.875
774.842895508,120.65
775.106567383,118.275
775.370239258,118.55
775.633789062,119.85
775.897399902,123.0
776.160949707,116.325
776.424499512,119.775
776.687988281,120.625
776.951477051,125.125
777.214904785,119.65
777.47833252,120.95
