191.299911499,99.35
191.603515625,101.475
191.907119751,96.375
192.210693359,103.825
192.514251709,101.575
192.817810059,103.775
193.121368408,102.35
193.42489624,104.575
193.728408813,100.45
194.031936646,102.05
194.33543396,94.275
194.638916016,110.025
194.94241333,97.875
195.245880127,95.25
195.549331665,94.6
195.852767944,97.7
196.156204224,190.475
196.459625244,184.975
196.763015747,182.35
197.066436768,190.925
197.369812012,183.9
197.673187256,185.925
197.9765625,185.875
198.279922485,190.15
198.583251953,179.275
198.886581421,185.125
199.18989563,190.85
199.493209839,189.15
199.79649353,178.925
200.09979248,194.1
200.403076172,182.075
200.706314087,184.75
201.009567261,182.2
201.312820435,189.725
201.616027832,178.375
201.919235229,172.025
202.222457886,180.475
202.525634766,181.475
202.828826904,174.325
203.132003784,176.125
203.435150146,177.25
203.738296509,179.4
204.041412354,178.075
204.344558716,179.725
204.647659302,183.25
204.950759888,180.25
205.253845215,180.65
205.556930542,175.45
205.859985352,178.5
206.163024902,179.725
206.466079712,180.7
206.769104004,190.4
207.072113037,181.625
207.375137329,178.375
207.678131104,182.25
207.981109619,188.95
208.284088135,180.875
208.587036133,185.225
208.889984131,186.7
209.19291687,189.4
209.495849609,188.4
209.798751831,191.5
210.101654053,182.075
210.404556274,188.275
210.707427979,185.8
211.010269165,194.775
211.31312561,194.15
211.615982056,193.025
211.918807983,190.775
212.221618652,192.7
212.524429321,188.8
212.827224731,196.425
213.130004883,190.8
213.432769775,196.4
213.735534668,196.55
214.038269043,198.025
214.341003418,199.6
214.643737793,200.525
214.946456909,200.35
215.249145508,207.875
215.551834106,210.05
215.854507446,205.575
216.157165527,206.425
216.45980835,208.65
216.762451172,217.475
217.065078735,219.875
217.36769104,220.3
217.670303345,219.15
217.972885132,219.075
218.275466919,224.225
218.578048706,219.45
218.880599976,229.45
219.183120728,234.825
219.485656738,227.95
219.788192749,243.55
220.090682983,257.1
220.393188477,279.975
220.695663452,307.025
220.998138428,334.5
221.300582886,373.075
221.603042603,404.925
221.905487061,457.175
222.207901001,520.125
222.510299683,580.725
222.812728882,668.4
223.115097046,743.85
223.41746521,846.9
223.719848633,944.2
224.022171021,1025.75
224.324508667,1139.775
224.626846313,1268.5
224.929168701,1380.075
225.231460571,1492.05
225.533737183,1599.175
225.836013794,1735.7
226.138290405,1838.7
226.440536499,1957.35
226.742767334,2057.725
227.044998169,2165.225
227.347213745,2290.525
227.649429321,2399.05
227.951629639,2471.6
228.253799438,2569.85
228.555953979,2656.175
228.858123779,2741.55
229.160263062,2830.6
229.462371826,2916.025
229.764511108,2966.875
230.066619873,3051.975
230.36869812,3103.8
230.670776367,3195.7
230.972854614,3286.575
231.274902344,3355.0
231.576950073,3452.425
231.878967285,3513.925
232.180999756,3611.075
232.48298645,3682.275
232.784988403,3753.35
233.086975098,3854.275
233.388946533,3917.075
233.69090271,3998.125
233.992858887,4098.675
234.294769287,4143.625
234.596694946,4211.425
234.898605347,4305.275
235.200500488,4350.575
235.502380371,4404.4
235.804244995,4466.35
236.106109619,4479.7
236.407958984,4528.875
236.709777832,4570.475
237.011581421,4626.125
237.313400269,4634.875
237.615203857,4673.45
237.916976929,4726.6
238.21875,4743.575
238.520507812,4797.95
238.822250366,4832.725
239.12399292,4848.6
239.425704956,4895.775
239.727401733,4880.5
240.02911377,4918.35
240.330780029,4929.775
240.632446289,4982.1
240.93409729,5010.3
241.23576355,5034.35
241.537384033,5076.45
241.839004517,5105.7
242.140594482,5130.375
242.442199707,5171.375
242.743774414,5212.575
243.045333862,5239.875
243.346923828,5256.675
243.648452759,5291.125
243.949966431,5290.85
244.251495361,5341.225
244.552993774,5359.725
244.854492188,5314.6
245.155975342,5356.5
245.457443237,5346.725
245.758880615,5361.625
246.060333252,5348.775
246.36177063,5317.225
246.66317749,5312.55
246.964569092,5267.1
247.265945435,5288.2
247.567337036,5270.05
247.86869812,5287.025
248.170059204,5287.95
248.471389771,5301.15
248.772705078,5307.175
249.074035645,5340.425
249.375335693,5340.175
249.676620483,5381.25
249.977890015,5415.0
250.279159546,5476.4
250.58039856,5548.425
250.881637573,5572.3
251.182876587,5614.65
251.484069824,5693.1
251.785263062,5748.675
252.086456299,5844.5
252.387619019,5852.375
252.688781738,5911.525
252.989929199,5984.0
253.291061401,6055.275
253.592178345,6131.275
253.893280029,6179.225
254.194366455,6238.15
254.49546814,6256.975
254.796524048,6274.05
255.097579956,6343.35
255.398620605,6355.6
255.699645996,6429.275
256.000640869,6422.525
256.30166626,6444.175
256.602661133,6497.575
256.903656006,6441.875
257.204589844,6465.325
257.505523682,6446.65
257.80645752,6466.75
258.107391357,6428.175
258.408294678,6384.825
258.709228516,6362.15
259.010070801,6315.975
259.310943604,6314.8
259.611846924,6229.7
259.912658691,6201.45
260.213500977,6126.75
260.514343262,6082.275
260.815124512,5996.825
261.115936279,5966.05
261.416717529,5896.025
261.717468262,5896.25
262.018218994,5839.875
262.318969727,5818.325
262.619689941,5837.875
262.920410156,5854.475
263.221130371,5893.6
263.521789551,5883.3
263.822479248,5923.25
264.123138428,5955.475
264.42376709,5948.375
264.72442627,5927.8
265.025054932,5925.475
265.325622559,5932.35
265.626251221,5892.45
265.926818848,5855.325
266.227386475,5779.25
266.527954102,5761.075
266.828460693,5761.55
267.12902832,5638.975
267.429534912,5582.925
267.730010986,5547.2
268.030517578,5484.85
268.330993652,5435.125
268.631439209,5385.575
268.931915283,5328.05
269.232299805,5309.675
269.532745361,5266.6
269.8331604,5209.675
270.133544922,5176.275
270.433929443,5159.375
270.734313965,5100.225
271.034637451,5126.175
271.334991455,5099.0
271.635314941,5109.75
271.935638428,5126.375
272.235931396,5141.65
272.536254883,5151.9
272.836486816,5197.3
273.136749268,5241.175
273.437011719,5333.425
273.737213135,5390.425
274.037445068,5475.85
274.337677002,5515.55
274.6378479,5593.575
274.938049316,5684.25
275.238220215,5778.425
275.538360596,5864.6
275.838500977,5921.25
276.138641357,6007.775
276.438751221,6034.475
276.738830566,6122.85
277.03894043,6159.275
277.338989258,6252.05
277.639038086,6333.6
277.939056396,6363.375
278.239105225,6420.075
278.539093018,6470.75
278.839141846,6518.45
279.139129639,6547.85
279.439086914,6603.575
279.739044189,6643.525
280.039001465,6739.725
280.338928223,6724.725
280.63885498,6757.725
280.938781738,6809.775
281.238647461,6807.8
281.538513184,6807.5
281.838409424,6839.075
282.138244629,6869.775
282.438079834,6880.0
282.737945557,6868.0
283.037719727,6904.325
283.337524414,6916.3
283.637298584,6934.55
283.937072754,6929.425
284.236816406,6940.4
284.536560059,6914.9
284.836303711,6908.275
285.136016846,6950.75
285.43572998,6929.575
285.735412598,6925.925
286.035064697,6919.575
286.334747314,6953.225
286.634368896,6946.075
286.933990479,6881.75
287.233642578,6853.75
287.533203125,6838.05
287.832824707,6763.975
288.132385254,6679.875
288.431945801,6574.0
288.731506348,6455.075
289.031036377,6305.5
289.330566406,6216.775
289.630065918,6188.3
289.92956543,6160.65
290.229034424,6224.95
290.528503418,6360.2
290.827941895,6492.45
291.127380371,6602.15
291.42678833,6697.35
291.726226807,6830.6
292.025604248,6854.175
292.324981689,6876.15
292.624359131,6886.425
292.923736572,6890.05
293.223052979,6919.4
293.522369385,6900.625
293.821685791,6843.025
294.12097168,6847.925
294.420257568,6777.625
294.719543457,6764.675
295.018768311,6768.6
295.318023682,6712.6
295.617248535,6659.325
295.916442871,6612.025
296.215667725,6554.425
296.514862061,6454.3
296.813995361,6252.825
297.11315918,6103.2
297.412322998,5938.85
297.711425781,5945.0
298.010559082,6062.85
298.309631348,6232.35
298.608734131,6433.025
298.907806396,6568.85
299.206848145,6670.725
299.505889893,6763.875
299.804901123,6853.85
300.103912354,6906.45
300.402954102,6992.275
300.701904297,7020.025
301.00088501,7056.5
301.299835205,7124.2
301.5987854,7159.475
301.897735596,7225.975
302.196624756,7278.6
302.495513916,7342.975
302.794403076,7362.575
303.093292236,7412.925
303.392120361,7480.9
303.690979004,7540.175
303.989837646,7549.5
304.288604736,7641.325
304.587402344,7588.85
304.886199951,7649.3
305.184967041,7688.725
305.483734131,7709.1
305.782501221,7753.675
306.081176758,7764.9
306.37991333,7784.0
306.678619385,7773.575
306.977294922,7790.25
307.275970459,7807.675
307.574645996,7844.8
307.873260498,7805.075
308.171875,7837.2
308.470489502,7823.625
308.769104004,7740.45
309.067687988,7754.25
309.366241455,7767.5
309.664794922,7722.075
309.963348389,7725.925
310.261871338,7728.2
310.560394287,7715.225
310.858856201,7753.425
311.157348633,7795.175
311.455810547,7794.8
311.754272461,7806.55
312.052703857,7856.2
312.351135254,7884.725
312.649536133,7870.425
312.947937012,7884.1
313.246307373,7903.6
313.544647217,7910.1
313.843017578,7832.025
314.141387939,7822.075
314.439697266,7849.275
314.738006592,7801.725
315.036315918,7728.825
315.334564209,7673.675
315.6328125,7610.95
315.931091309,7561.475
316.229309082,7453.325
316.527526855,7334.875
316.825744629,7318.35
317.123901367,7244.4
317.422088623,7194.2
317.720245361,7208.525
318.0184021,7216.025
318.316497803,7244.075
318.614654541,7269.075
318.912750244,7341.575
319.21081543,7331.525
319.50894165,7377.35
319.806945801,7359.275
320.104980469,7380.025
320.403045654,7374.275
320.701049805,7337.025
320.999023438,7319.775
321.297027588,7297.25
321.595001221,7271.5
321.892913818,7246.55
322.190887451,7193.275
322.488830566,7124.5
322.786712646,7088.2
323.084625244,7018.975
323.382507324,7016.325
323.680358887,6921.175
323.978210449,6851.975
324.276062012,6821.425
324.573852539,6775.525
324.871643066,6740.025
325.169464111,6670.35
325.467224121,6624.15
325.764984131,6579.95
326.062744141,6499.225
326.360473633,6457.6
326.658203125,6363.25
326.955871582,6316.625
327.253570557,6247.7
327.551239014,6214.5
327.848907471,6176.325
328.146514893,6115.575
328.444152832,6054.075
328.741790771,6009.575
329.039367676,5969.5
329.336914062,5899.9
329.634521484,5849.75
329.932067871,5841.675
330.229553223,5747.075
330.527160645,5706.9
330.824615479,5653.4
331.12210083,5580.3
331.419586182,5486.6
331.717041016,5463.625
332.014465332,5373.975
332.311920166,5354.225
332.609313965,5308.675
332.906707764,5296.85
333.204101562,5265.1
333.501495361,5287.1
333.798828125,5356.5
334.096160889,5363.0
334.39352417,5405.4
334.690795898,5457.625
334.988098145,5497.325
335.285400391,5558.75
335.582641602,5539.425
335.879882812,5590.625
336.177124023,5616.925
336.474334717,5662.775
336.77154541,5646.125
337.068725586,5666.15
337.365905762,5672.975
337.66305542,5703.425
337.960205078,5720.45
338.257324219,5741.925
338.554443359,5716.225
338.8515625,5765.975
339.148590088,5735.4
339.445648193,5754.925
339.742736816,5728.725
340.039764404,5719.525
340.336761475,5688.1
340.63381958,5636.7
340.930755615,5619.55
341.227722168,5558.725
341.524688721,5461.375
341.821624756,5438.0
342.118560791,5478.05
342.415496826,5539.55
342.712402344,5642.475
343.009246826,5804.4
343.306121826,5885.5
343.602966309,5919.625
343.899810791,6015.45
344.196624756,6068.5
344.493438721,6111.95
344.79019165,6147.55
345.086975098,6175.7
345.383758545,6250.525
345.680480957,6205.675
345.977203369,6237.35
346.273956299,6271.9
346.570617676,6268.175
346.86730957,6282.775
347.163970947,6248.275
347.460601807,6289.275
347.757232666,6306.275
348.053894043,6294.125
348.350463867,6242.2
348.647064209,6211.175
348.943634033,6207.425
349.24017334,6187.525
349.536712646,6162.85
349.833251953,6173.85
350.129760742,6148.0
350.426208496,6149.15
350.722747803,6099.4
351.019195557,6115.375
351.315612793,6071.95
351.612060547,6067.35
351.908508301,6002.575
352.204864502,5952.525
352.501281738,5912.15
352.797637939,5851.075
353.093963623,5774.65
353.390319824,5739.575
353.686645508,5653.975
353.982940674,5582.35
354.27923584,5554.95
354.575531006,5508.35
354.871765137,5497.475
355.167999268,5476.3
355.464233398,5463.4
355.760437012,5484.825
356.056640625,5470.175
356.352813721,5497.025
356.648956299,5511.875
356.945129395,5505.2
357.241271973,5489.05
357.537384033,5543.425
357.833496094,5475.55
358.129577637,5450.7
358.425628662,5437.35
358.721679688,5421.025
359.017730713,5408.8
359.313720703,5350.0
359.609710693,5333.525
359.905761719,5284.975
360.201721191,5241.45
360.497650146,5205.95
360.793609619,5170.025
361.089538574,5116.075
361.385437012,5043.425
361.681365967,4999.6
361.977233887,4970.9
362.273071289,4909.2
362.568908691,4798.575
362.864746094,4706.625
363.160552979,4591.15
363.456359863,4449.225
363.752166748,4325.425
364.047912598,4250.8
364.343658447,4220.35
364.639434814,4229.7
364.935119629,4270.825
365.230834961,4341.125
365.526550293,4362.5
365.822174072,4372.75
366.117858887,4407.0
366.413482666,4405.525
366.709075928,4451.0
367.004730225,4364.025
367.300292969,4347.1
367.595855713,4401.875
367.891448975,4310.375
368.186981201,4210.075
368.482513428,4182.925
368.778015137,4166.125
369.073547363,4135.875
369.36895752,4146.425
369.664428711,4071.9
369.95993042,3958.85
370.255310059,3909.2
370.550720215,3907.9
370.846160889,3859.975
371.14151001,3824.275
371.436859131,3803.775
371.73223877,3786.725
372.027557373,3756.2
372.322875977,3704.075
372.618164062,3674.975
372.913482666,3657.125
373.208709717,3640.15
373.503967285,3573.525
373.799194336,3561.525
374.094421387,3539.525
374.389648438,3521.75
374.684844971,3510.725
374.979980469,3551.15
375.275146484,3564.2
375.570281982,3581.7
375.865386963,3593.3
376.160522461,3539.175
376.455596924,3550.175
376.750640869,3628.675
377.045715332,3640.15
377.340759277,3661.175
377.635772705,3724.875
377.93081665,3760.075
378.225769043,3810.55
378.520751953,3859.975
378.815734863,3820.8
379.110656738,3986.2
379.405548096,4116.775
379.700500488,3991.225
379.995391846,3789.6
380.290252686,3836.65
380.585083008,3948.025
380.879974365,3977.525
381.17477417,3894.8
381.469543457,3840.325
381.764404297,3828.35
382.059143066,3869.725
382.353912354,3938.65
382.648651123,4029.025
382.943389893,4009.875
383.238067627,3857.425
383.532775879,3848.975
383.827484131,3793.5
384.12210083,3786.35
384.416778564,3755.125
384.711425781,3664.425
385.006011963,3671.1
385.300628662,3677.775
385.595184326,3737.55
385.88973999,3837.7
386.184295654,3922.225
386.478820801,3996.1
386.77331543,4082.675
387.067840576,4174.95
387.362335205,4273.225
387.656768799,4325.25
387.951202393,4361.05
388.245635986,4415.125
388.540039062,4492.025
388.834472656,4552.175
389.128875732,4452.675
389.423187256,4256.5
389.717559814,4201.225
390.011871338,4308.2
390.306182861,4328.675
390.600463867,4348.875
390.894775391,4413.85
391.189025879,4439.875
391.48324585,4431.9
391.777526855,4475.2
392.071685791,4642.525
392.365875244,4751.1
392.660064697,4802.8
392.95425415,5126.55
393.248382568,5099.025
393.542510986,4654.325
393.836608887,4505.825
394.130706787,4517.825
394.424804688,4457.7
394.71887207,4561.25
395.012878418,4551.775
395.306915283,4465.775
395.600921631,4391.7
395.894927979,4355.875
396.188903809,4419.0
396.482879639,4424.375
396.776794434,4599.825
397.070739746,4561.35
397.364654541,4591.8
397.658538818,4943.95
397.952423096,4957.775
398.246307373,4930.35
398.540100098,5403.65
398.833953857,5291.35
399.127746582,4847.75
399.421508789,4880.925
399.715301514,4810.925
400.009063721,4724.925
400.30279541,4591.975
400.596496582,4513.15
400.890258789,4661.425
401.183929443,4761.575
401.47756958,4641.45
401.771240234,4422.125
402.064880371,4455.55
402.35848999,4490.5
402.652130127,4377.825
402.945678711,4459.925
403.239257812,4396.55
403.532775879,4367.1
403.82635498,4415.225
404.119842529,4339.425
404.413360596,4332.775
404.706848145,4362.7
405.000274658,4304.4
405.293762207,4368.675
405.587188721,4416.6
405.880584717,4269.925
406.17401123,4121.775
406.467407227,3927.025
406.760742188,3942.25
407.054107666,3966.125
407.347442627,3919.7
407.640716553,3918.15
407.934051514,3944.15
408.227325439,4005.65
408.520568848,4199.675
408.813842773,4290.65
409.107086182,4089.85
409.400238037,4047.375
409.693450928,3979.75
409.986633301,4110.925
410.279754639,4016.85
410.572875977,3760.725
410.86605835,3691.075
411.159118652,3720.975
411.452209473,3710.725
411.745330811,3600.45
412.038360596,3509.25
412.331390381,3557.275
412.624420166,3594.25
412.917388916,3514.025
413.210388184,3342.525
413.503387451,3309.3
413.796295166,3225.225
414.089233398,3067.1
414.382141113,3000.625
414.675048828,2982.95
414.967926025,3014.775
415.260803223,2971.15
415.55368042,2975.05
415.846466064,2958.55
416.139282227,3017.0
416.432098389,3147.625
416.724853516,3124.775
417.017608643,3082.425
417.31036377,3082.2
417.603088379,3209.925
417.895782471,3175.85
418.188476562,3147.625
418.481140137,3214.825
418.773803711,3262.15
419.066436768,3230.75
419.359039307,3304.875
419.651641846,3296.15
419.944244385,3302.7
420.236816406,3271.35
420.529327393,3468.725
420.821899414,3518.175
421.114379883,3445.575
421.406860352,3703.325
421.699371338,3892.625
421.991821289,3840.85
422.284240723,3687.525
422.576721191,3526.9
422.869110107,3424.275
423.161468506,3389.825
423.453857422,3435.625
423.74621582,3314.325
424.038543701,3191.65
424.330871582,3157.575
424.623168945,3104.025
424.915435791,3237.15
425.207702637,3199.4
425.499969482,3151.425
425.792205811,3085.05
426.084411621,2856.7
426.376617432,2930.3
426.668762207,3004.625
426.9609375,2883.675
427.253082275,3013.725
427.545196533,3376.925
427.837310791,3120.4
428.129425049,2855.05
428.421447754,3043.825
428.713531494,3042.6
429.005554199,3041.475
429.297576904,3047.925
429.589599609,3442.05
429.881561279,3747.775
430.173522949,3535.4
430.465484619,3495.825
430.757415771,3568.35
431.049316406,3345.05
431.341186523,3127.8
431.633117676,3036.575
431.924957275,2772.35
432.21673584,2683.55
432.508636475,2796.3
432.800415039,2824.925
433.092163086,2718.575
433.383972168,2701.625
433.675689697,3340.025
433.967437744,3796.9
434.259155273,2929.075
434.550872803,2635.975
434.842498779,2682.65
435.134185791,2817.35
435.425842285,2837.525
435.717437744,2762.15
436.009063721,2574.85
436.30065918,2704.7
436.592224121,3027.075
436.883758545,2848.775
437.175323486,2610.825
437.466827393,2584.5
437.758331299,2610.725
438.049804688,2602.225
438.341247559,2674.9
438.63269043,2744.2
438.924163818,2726.625
439.215515137,2699.725
439.50692749,2597.725
439.798309326,2610.025
440.089660645,2614.55
440.380981445,2532.725
440.672332764,2538.5
440.963623047,2756.7
441.254882812,3190.2
441.546173096,3369.775
441.837402344,3121.1
442.128631592,2944.85
442.41986084,2941.95
442.711029053,2820.825
443.002197266,2891.775
443.293365479,3059.075
443.584503174,3169.475
443.875610352,3142.525
444.166717529,2914.3
444.457794189,2965.65
444.748840332,2941.55
445.039916992,2904.825
445.330932617,2981.0
445.621948242,2844.075
445.912963867,2674.575
446.203918457,2876.45
446.494812012,3080.275
446.785827637,2899.85
447.076721191,2748.375
447.367584229,2737.25
447.658447266,2714.875
447.949371338,2752.525
448.24017334,2639.45
448.530975342,2572.75
448.821838379,2727.525
449.112579346,2793.575
449.40335083,2736.175
449.694152832,2755.725
449.984863281,2781.25
450.27557373,2699.2
450.56628418,2767.575
450.856933594,2789.925
451.147583008,2626.625
451.438262939,2528.825
451.728881836,2721.1
452.019470215,2806.825
452.310089111,2620.15
452.600646973,2643.7
452.891174316,2692.85
453.181732178,2539.925
453.472229004,2427.975
453.762695312,2525.675
454.053222656,2544.675
454.343658447,2421.35
454.634063721,2363.9
454.924530029,2529.475
455.214935303,2653.0
455.505279541,2717.775
455.795715332,2592.475
456.086029053,2403.65
456.376312256,2390.725
456.666687012,2427.175
456.956939697,2526.15
457.247192383,2513.125
457.537445068,2592.725
457.827728271,2745.85
458.117919922,2696.375
458.408081055,2616.2
458.698303223,2787.975
458.988433838,2728.3
459.278564453,2565.075
459.568725586,2810.025
459.858825684,2921.025
460.148864746,2640.125
460.438995361,2597.8
460.729034424,2657.725
461.019042969,2670.125
461.309082031,2839.65
461.599060059,2730.2
461.889007568,2318.575
462.179016113,2159.4
462.468933105,2371.65
462.75881958,2467.8
463.048736572,2245.2
463.338592529,2480.7
463.628448486,2818.55
463.918365479,2541.6
464.2081604,2684.65
464.497924805,2662.0
464.787780762,2752.925
465.077514648,3035.525
465.367218018,2696.525
465.657012939,2877.625
465.946685791,3254.25
466.236358643,2902.075
466.526092529,2409.35
466.815734863,2406.775
467.105316162,2332.9
467.394927979,2376.35
467.684570312,2245.15
467.974121094,2324.875
468.263671875,2410.95
468.553222656,2219.15
468.842773438,2134.15
469.132232666,2037.725
469.42175293,2051.1
469.711212158,2030.8
470.000640869,1912.35
470.290100098,1971.5
470.579498291,1996.65
470.868835449,2006.9
471.158294678,1961.125
471.447601318,1953.425
471.736907959,2010.675
472.026275635,2074.85
472.315551758,2051.825
472.604797363,2052.65
472.894104004,2167.275
473.183319092,2271.075
473.47253418,2264.925
473.761779785,2254.85
474.05090332,2183.425
474.340087891,2144.475
474.629241943,2087.65
474.918365479,2237.75
475.207427979,2478.075
475.496551514,2504.575
475.785614014,2273.25
476.074645996,2083.3
476.363708496,2175.675
476.652679443,2307.45
476.941650391,2144.95
477.230682373,2002.6
477.519622803,1997.525
477.808502197,2138.975
478.097412109,2368.725
478.386352539,2335.675
478.675201416,2102.1
478.964050293,1988.075
479.25289917,2173.975
479.541717529,2218.6
479.830474854,2071.975
480.11932373,2387.025
480.408050537,2546.55
480.696777344,2205.3
480.985534668,2093.4
481.274200439,2165.375
481.562866211,2390.5
481.851593018,2422.175
482.140197754,2365.0
482.428833008,2212.925
482.717468262,2030.85
483.006011963,2054.5
483.294586182,2168.25
483.5831604,2200.325
483.871673584,2090.225
484.16015625,2198.525
484.448699951,2430.125
484.7371521,2458.25
485.02557373,2459.875
485.314025879,2213.35
485.602416992,3431.2
485.890777588,12201.55
486.179199219,10899.0
486.467559814,2909.45
486.755859375,2116.2
487.044219971,2471.675
487.332519531,2645.825
487.620758057,2253.575
487.908966064,2027.8
488.197265625,1843.575
488.485473633,1756.525
488.773651123,1863.925
489.061859131,1864.425
489.350006104,1803.2
489.638122559,1761.675
489.926300049,1767.175
490.214355469,1728.725
490.502441406,1678.475
490.790527344,1627.4
491.078552246,1793.375
491.366546631,1797.6
491.654602051,1591.275
491.942565918,1658.4
492.230499268,1688.525
492.518493652,1654.15
492.806396484,1686.1
493.094268799,1612.45
493.382202148,1652.725
493.670074463,1764.825
493.957885742,1609.525
494.245727539,1610.325
494.533508301,1753.65
494.821289062,1659.8
495.109100342,1509.375
495.396850586,1468.05
495.684539795,1430.375
495.972290039,1620.1
496.25994873,1924.4
496.547607422,1935.425
496.835296631,1775.2
497.122894287,1484.275
497.410522461,1412.4
497.6980896,1407.225
497.985687256,1375.475
498.273223877,1471.025
498.560760498,1532.125
498.848266602,1564.725
499.135772705,1525.95
499.423217773,1565.175
499.710693359,1666.675
499.998138428,1600.125
500.285522461,1453.675
500.572937012,1384.75
500.860290527,1429.725
501.147644043,1520.325
501.434997559,1728.7
501.722290039,1603.2
502.00958252,1401.825
502.296875,1637.425
502.584106445,1622.3
502.871337891,1457.65
503.158599854,1519.4
503.445770264,1602.325
503.732910156,1583.625
504.020141602,1424.625
504.307220459,1396.1
504.594329834,1414.475
504.881469727,1370.45
505.168518066,1429.75
505.455535889,1500.325
505.742614746,1381.65
506.029632568,1318.4
506.316589355,1488.225
506.603637695,1565.15
506.890563965,1397.625
507.177459717,1243.85
507.464385986,1169.7
507.751312256,1370.05
508.038146973,1432.325
508.325012207,1305.55
508.611877441,1371.375
508.898681641,1380.05
509.185424805,1234.825
509.472259521,1200.825
509.759002686,1273.075
510.045715332,1294.525
510.332458496,1258.625
510.619140625,1304.675
510.905761719,1230.25
511.192504883,1217.975
511.479095459,1253.55
511.765686035,1210.25
512.052307129,1147.05
512.338928223,1096.7
512.625427246,1146.95
512.91204834,1201.45
513.198486328,1187.775
513.484985352,1150.075
513.77142334,1082.75
514.057922363,1122.725
514.344299316,1124.675
514.63079834,1083.35
514.917175293,1079.425
515.203552246,989.875
515.489868164,969.075
515.776245117,1089.5
516.0625,1111.975
516.348815918,1034.5
516.635070801,1073.7
516.921325684,1111.35
517.207580566,1057.125
517.493774414,974.6
517.779968262,984.525
518.066101074,1017.65
518.352294922,974.875
518.638366699,978.2
518.924499512,1055.45
519.210632324,1122.8
519.496643066,1089.725
519.782714844,1004.675
520.068786621,971.3
520.354736328,931.15
520.640686035,893.95
520.926757812,943.75
521.212646484,1007.25
521.498535156,1022.3
521.784484863,970.025
522.0703125,910.375
522.356262207,919.15
522.642089844,989.725
522.927856445,979.95
523.213684082,985.675
523.499511719,969.225
523.78527832,1007.75
524.070983887,1055.325
524.356750488,1030.875
524.64239502,1005.375
524.928039551,1001.125
525.213806152,1010.95
525.499389648,994.575
525.784973145,1019.575
526.070617676,1071.275
526.356140137,1031.75
526.641723633,1034.975
526.927307129,1098.925
527.212768555,1097.9
527.498291016,1088.25
527.783752441,1083.9
528.069213867,1062.425
528.354675293,1080.675
528.640014648,1233.95
528.925476074,1290.1
529.21081543,1222.125
529.496154785,1199.475
529.781555176,1169.15
530.066833496,1187.25
530.352050781,1207.1
530.637390137,1199.65
530.922607422,1192.425
531.207824707,1183.1
531.493041992,1182.725
531.778198242,1243.7
532.063354492,1214.65
532.348571777,1167.275
532.633666992,1188.575
532.918762207,1262.5
533.203857422,1339.3
533.488891602,1359.4
533.773925781,1305.225
534.059020996,1283.525
534.343933105,1317.025
534.628967285,1298.325
534.91394043,1316.6
535.198852539,1323.175
535.483703613,1297.8
535.768676758,1248.675
536.053527832,1254.85
536.338317871,1224.475
536.62322998,1158.925
536.90802002,1132.8
537.192810059,1159.675
537.477539062,1223.7
537.762329102,1269.975
538.047058105,1307.325
538.331726074,1329.6
538.616455078,1314.05
538.901123047,1295.675
539.18572998,1344.3
539.470397949,1338.475
539.755004883,1335.625
540.039550781,1291.225
540.32409668,1262.625
540.608703613,1299.175
540.893188477,1394.4
541.17767334,1408.275
541.462158203,1406.7
541.746643066,1359.625
542.031066895,1394.475
542.315429688,1437.625
542.59979248,1431.675
542.884216309,1421.45
543.168579102,1406.6
543.452941895,1416.75
543.737243652,1476.775
544.021484375,1518.975
544.305725098,1508.8
544.590026855,1493.55
544.874267578,1502.775
545.158447266,1573.75
545.442626953,1489.4
545.726806641,1383.675
546.010925293,1412.1
546.29510498,1449.075
546.579162598,1446.9
546.863220215,1465.75
547.147277832,1545.175
547.431335449,1623.05
547.715332031,1672.675
547.999328613,1780.625
548.283325195,1786.85
548.567260742,1646.625
548.851135254,1620.75
549.135070801,1591.125
549.419006348,1504.825
549.702819824,1597.025
549.986755371,1667.275
550.270507812,1622.425
550.554321289,1665.4
550.83807373,1680.675
551.121826172,1645.45
551.405517578,1660.55
551.689331055,1767.2
551.973022461,1980.65
552.256652832,2038.65
552.540344238,1946.075
552.823974609,1919.925
553.107543945,1906.7
553.391174316,1966.75
553.674743652,2019.85
553.958251953,2025.025
554.241821289,2029.95
554.525268555,1980.85
554.808776855,1967.8
555.092285156,2135.475
555.375671387,2229.675
555.659057617,2221.3
555.942504883,2236.525
556.225891113,2281.5
556.509216309,2242.55
556.792541504,2161.875
557.075866699,2230.95
557.359130859,2260.225
557.64239502,2260.6
557.92565918,2341.675
558.208862305,2320.4
558.49206543,2263.15
558.77532959,2274.625
559.058410645,2310.225
559.341552734,2311.95
559.624694824,2363.425
559.907775879,2430.775
560.190856934,2541.825
560.473937988,2538.15
560.756896973,2559.4
561.039978027,2597.625
561.322937012,2546.825
561.605895996,2551.825
561.88885498,2524.15
562.171813965,2527.95
562.454650879,2504.675
562.737548828,2548.5
563.020446777,2609.0
563.303283691,2626.15
563.58605957,2657.525
563.868896484,2676.325
564.151672363,2720.275
564.434387207,2756.375
564.717163086,2718.5
564.99987793,2763.95
565.282531738,2807.325
565.565185547,2767.85
565.847839355,2778.5
566.130432129,2885.95
566.413085938,2853.875
566.695678711,2854.425
566.978149414,2978.075
567.260681152,3106.6
567.543273926,3177.775
567.825744629,3094.175
568.108154297,3141.625
568.390686035,3256.825
568.673095703,3360.15
568.955505371,3396.05
569.237854004,3421.9
569.520202637,3686.475
569.802490234,3883.225
570.084838867,3867.025
570.367126465,3697.925
570.649414062,3746.1
570.93170166,4045.425
571.213928223,4117.825
571.496154785,3882.2
571.778381348,4096.5
572.06048584,4344.35
572.342590332,3906.375
572.624755859,3581.225
572.906860352,3644.925
573.188903809,4265.475
573.470947266,4516.925
573.752990723,4288.85
574.03503418,4390.25
574.317016602,4742.325
574.598937988,4546.45
574.88092041,4428.225
575.162841797,4588.275
575.444763184,4269.725
575.726623535,4020.925
576.008483887,4049.375
576.290344238,4421.825
576.572143555,4613.6
576.853881836,4670.175
577.135681152,4573.9
577.417419434,4620.75
577.699157715,5443.45
577.980895996,5592.225
578.262573242,4983.075
578.544128418,4524.875
578.825866699,4482.075
579.107421875,4196.775
579.388977051,4351.1
579.670593262,4719.9
579.952148438,4568.725
580.233642578,4672.225
580.515197754,4775.25
580.796691895,4489.25
581.078125,4659.525
581.359619141,6065.4
581.640991211,6136.375
581.922363281,5288.05
582.203796387,5352.25
582.485107422,4994.85
582.766418457,4640.475
583.047790527,4497.85
583.329040527,4385.675
583.610290527,4259.45
583.891540527,4369.775
584.172790527,4651.875
584.453918457,4666.725
584.735107422,4711.175
585.016235352,5137.95
585.297363281,5118.15
585.578552246,4908.825
585.859619141,4862.425
586.140625,4664.85
586.421630859,4540.025
586.702697754,4549.85
586.983642578,4770.325
587.264648438,4936.2
587.545654297,4865.4
587.826477051,4800.675
588.107421875,4634.425
588.388305664,4681.8
588.669189453,4756.775
588.950012207,4627.025
589.230834961,4538.9
589.511657715,4596.925
589.792358398,4681.175
590.073120117,4690.975
590.353881836,4649.25
590.63458252,4681.025
590.915283203,4642.75
591.195922852,4618.325
591.4765625,4662.025
591.757202148,4701.45
592.037780762,4691.675
592.31829834,4700.55
592.598937988,4869.8
592.879394531,5022.475
593.159912109,4932.875
593.440429688,4892.475
593.720825195,4856.05
594.001281738,4848.4
594.281677246,4795.525
594.562072754,4787.3
594.842407227,4875.55
595.122802734,4891.5
595.403137207,4886.0
595.683410645,4848.7
595.963623047,4841.05
596.243896484,4803.675
596.524169922,4800.475
596.804382324,4791.85
597.084533691,4831.475
597.364746094,4843.625
597.644836426,4870.0
597.924987793,4861.9
598.205078125,4848.95
598.485107422,4846.225
598.765197754,4964.5
599.045227051,5009.3
599.325195312,4921.075
599.605224609,4858.975
599.885192871,4898.175
600.165100098,4915.225
600.445007324,4874.1
600.724914551,4895.6
601.004760742,4896.1
601.284667969,4924.075
601.56451416,4874.85
601.844238281,4872.3
602.124084473,4890.15
602.403808594,4904.625
602.683532715,4914.075
602.963256836,4897.4
603.242919922,4937.0
603.522583008,4957.2
603.802246094,4948.1
604.081848145,4894.125
604.36138916,4877.475
604.641052246,4893.025
604.920532227,4862.4
605.200073242,4896.2
605.479614258,4924.85
605.759094238,4929.175
606.038574219,4930.125
606.317932129,4885.3
606.597412109,4883.775
606.87677002,4902.675
607.15612793,4915.625
607.435546875,4919.825
607.714782715,4936.05
607.99407959,4865.8
608.273376465,4852.425
608.552612305,4878.875
608.831848145,4892.225
609.111083984,4876.05
609.390258789,4865.975
609.669433594,4872.575
609.948608398,4887.1
610.227722168,4889.925
610.506713867,4833.825
610.785888672,4856.025
611.064880371,4824.475
611.34387207,4826.325
611.622924805,4838.725
611.901916504,4837.675
612.180847168,4783.125
612.459777832,4777.4
612.738647461,4792.75
613.01751709,4760.9
613.296447754,4699.975
613.575317383,4684.25
613.854064941,4655.775
614.132873535,4573.175
614.411621094,4513.8
614.690368652,4461.975
614.969177246,4425.775
615.247802734,4358.625
615.526489258,4324.5
615.805175781,4229.15
616.08380127,4129.6
616.362365723,4057.35
616.640991211,4010.45
616.919555664,3967.775
617.198059082,4036.75
617.4765625,4276.55
617.755126953,4401.4
618.033569336,4425.25
618.311950684,4411.7
618.590454102,4393.425
618.868774414,4396.625
619.147155762,4397.475
619.425598145,4359.975
619.703857422,4378.5
619.982177734,4391.125
620.260498047,4379.75
620.538757324,4342.45
620.816955566,4318.2
621.095214844,4276.2
621.373413086,4296.725
621.651550293,4345.575
621.929748535,4365.425
622.207824707,4341.575
622.485900879,4346.9
622.764038086,4334.95
623.042053223,4363.175
623.320007324,4387.5
623.598083496,4378.9
623.876037598,4363.975
624.153991699,4373.1
624.432006836,4376.25
624.709838867,4385.775
624.987731934,4363.075
625.265563965,4352.675
625.543395996,4364.85
625.821228027,4410.825
626.098999023,4393.8
626.376831055,4426.825
626.654541016,4425.7
626.932250977,4473.325
627.209960938,4472.7
627.487670898,4519.275
627.765319824,4505.225
628.04296875,4494.975
628.320495605,4529.6
628.598083496,4496.025
628.875671387,4540.075
629.153259277,4537.25
629.430725098,4587.7
629.708251953,4573.7
629.985656738,4597.8
630.263122559,4600.5
630.540588379,4620.9
630.817932129,4657.4
631.095275879,4655.975
631.372680664,4685.375
631.649963379,4721.125
631.927246094,4748.95
632.204589844,4773.375
632.481811523,4792.375
632.759033203,4872.075
633.036254883,4888.925
633.313415527,4948.275
633.590576172,4953.075
633.867736816,5056.2
634.144836426,5092.275
634.421875,5113.375
634.698913574,5169.75
634.976013184,5179.75
635.252990723,5223.7
635.529968262,5237.175
635.807006836,5297.075
636.08392334,5273.0
636.360839844,5211.15
636.637756348,5130.35
636.914611816,5102.85
637.191467285,5059.325
637.468261719,5108.575
637.745056152,5082.775
638.021789551,5107.475
638.298583984,5102.2
638.575317383,5135.8
638.851989746,5146.775
639.12878418,5132.45
639.405395508,5095.55
639.682006836,5123.2
639.958618164,5104.575
640.235229492,5105.65
640.511779785,5131.95
640.788330078,5109.25
641.064880371,5094.075
641.341308594,5075.025
641.617797852,5073.325
641.894226074,5082.225
642.170654297,5069.7
642.44708252,5074.425
642.723388672,5048.625
642.999755859,5047.45
643.276123047,5040.875
643.552429199,5018.325
643.828674316,5003.125
644.104919434,4986.2
644.381164551,5002.525
644.657348633,4983.625
644.933532715,4967.8
645.209716797,4963.65
645.485839844,4950.4
645.761901855,4942.975
646.038024902,4922.325
646.314086914,4955.55
646.590087891,4910.25
646.866149902,4933.225
647.142150879,4891.825
647.41809082,4859.275
647.694030762,4854.025
647.969970703,4844.15
648.245788574,4870.925
648.521728516,4834.2
648.797546387,4822.1
649.073303223,4833.15
649.349182129,4813.5
649.624938965,4802.9
649.900634766,4790.125
650.176391602,4785.825
650.452087402,4771.85
650.727783203,4766.4
651.003479004,4751.9
651.279052734,4739.275
651.554626465,4711.675
651.83026123,4726.175
652.105773926,4745.975
652.381286621,4684.9
652.656860352,4675.625
652.932312012,4682.85
653.207763672,4694.725
653.483215332,4708.625
653.758605957,4691.3
654.033935547,4674.025
654.309326172,4676.45
654.584716797,4680.275
654.859985352,4652.3
655.135253906,4674.575
655.410583496,4670.25
655.685791016,5375.35
655.9609375,8419.325
656.236206055,8225.325
656.511291504,5395.45
656.786437988,4737.675
657.061645508,4649.725
657.336669922,4646.375
657.611694336,4670.225
657.886779785,4694.175
658.161804199,4681.65
658.436828613,4653.575
658.711791992,4645.95
658.986755371,4655.375
659.261657715,4664.725
659.536621094,4642.5
659.811401367,4646.1
660.086303711,4649.75
660.36114502,4633.575
660.635864258,4627.425
660.910644531,4671.275
661.185424805,4656.425
661.460205078,4663.075
661.734863281,4645.05
662.009521484,4646.65
662.284179688,4651.175
662.558776855,4669.35
662.833435059,4669.15
663.108032227,4667.95
663.382568359,4663.525
663.657043457,4703.6
663.93157959,4694.35
664.206054688,4652.625
664.48046875,4690.75
664.755004883,4676.825
665.02935791,4700.025
665.303710938,4692.55
665.578125,4708.3
665.852416992,4710.825
666.126708984,4706.075
666.401062012,4689.225
666.675292969,4727.425
666.949462891,4729.325
667.223754883,4710.8
667.497924805,4738.25
667.772094727,4735.425
668.046264648,4690.375
668.3203125,4741.2
668.594421387,4725.75
668.868469238,4748.0
669.14251709,4733.175
669.416503906,4760.375
669.690551758,4728.8
669.964477539,4733.7
670.23840332,4749.5
670.512329102,4744.05
670.786254883,4735.125
671.060058594,4758.5
671.333984375,4767.0
671.607788086,4748.875
671.881530762,4758.35
672.155334473,4777.125
672.429077148,4788.325
672.702758789,4797.85
672.97644043,4762.95
673.25012207,4771.325
673.523742676,4758.025
673.797302246,4756.6
674.070922852,4804.925
674.344482422,4798.85
674.618041992,4799.625
674.891601562,4786.325
675.165100098,4794.375
675.438476562,4785.875
675.711975098,4817.85
675.985412598,4781.425
676.258789062,4774.625
676.532165527,4781.4
676.805480957,4780.475
677.078796387,4786.65
677.352111816,4799.3
677.625366211,4793.7
677.898620605,4765.55
678.171875,4817.575
678.445007324,4796.3
678.718200684,4801.35
678.991394043,4817.825
679.264404297,4799.7
679.537536621,4817.675
679.81060791,4811.8
680.083679199,4822.3
680.356689453,4810.125
680.629699707,4813.125
680.902648926,4795.5
681.175598145,4811.425
681.448547363,4833.85
681.721435547,4816.525
681.99420166,4810.65
682.267150879,4795.05
682.539916992,4841.15
682.812744141,4811.5
683.085510254,4800.475
683.358215332,4795.35
683.63092041,4784.525
683.903625488,4797.75
684.176330566,4785.825
684.448913574,4783.15
684.721557617,4770.6
684.99420166,4818.2
685.266662598,4790.4
685.539245605,4805.425
685.811767578,4837.175
686.084289551,4840.3
686.356689453,4846.5
686.629150391,4862.825
686.901550293,4889.0
687.17401123,4877.85
687.446350098,4872.925
687.718688965,4872.575
687.990966797,4886.325
688.263305664,4903.15
688.535522461,4871.475
688.807739258,4881.4
689.079956055,4906.925
689.352172852,4908.6
689.624328613,4923.225
689.896484375,4923.875
690.168518066,4931.175
690.440612793,4935.475
690.71270752,4938.05
690.984741211,4942.425
691.256713867,4972.0
691.528747559,4967.175
691.800720215,4986.025
692.072631836,4961.75
692.344543457,4985.825
692.616394043,4989.55
692.888244629,5002.3
693.160095215,5005.75
693.431945801,5024.8
693.703674316,5020.475
693.975463867,5007.925
694.247131348,5011.675
694.518859863,5036.95
694.790588379,5037.175
695.062255859,5035.225
695.33380127,5012.925
695.60546875,5035.475
695.87701416,5065.55
696.148498535,5066.575
696.42010498,5080.1
696.691589355,5079.325
696.96307373,5089.6
697.234558105,5107.925
697.50592041,5099.725
697.777282715,5135.95
698.048706055,5116.65
698.320068359,5150.9
698.591308594,5112.825
698.862670898,5126.4
699.133972168,5165.675
699.405151367,5137.7
699.676391602,5162.425
699.947570801,5156.575
700.21875,5144.425
700.489868164,5166.025
700.761047363,5165.3
701.032104492,5191.15
701.303100586,5174.275
701.57421875,5209.8
701.845214844,5207.725
702.116149902,5211.4
702.387207031,5219.875
702.65814209,5223.825
702.928955078,5239.375
703.199951172,5214.625
703.47076416,5211.4
703.741577148,5209.5
704.012451172,5226.225
704.28314209,5249.625
704.553955078,5215.725
704.824707031,5265.0
705.095397949,5263.825
705.366027832,5278.375
705.63671875,5276.875
705.907348633,5267.5
706.17791748,5291.375
706.448486328,5284.4
706.719055176,5316.225
706.989562988,5312.125
707.260131836,5353.9
707.530517578,5347.35
707.800964355,5346.325
708.071411133,5324.675
708.341796875,5338.075
708.612182617,5337.75
708.882446289,5316.825
709.152893066,5330.1
709.423156738,5359.525
709.693359375,5323.125
709.963623047,5343.7
710.233825684,5351.975
710.503967285,5326.075
710.774169922,5358.475
711.044311523,5364.1
711.31439209,5323.6
711.584533691,5349.325
711.854553223,5346.825
712.124572754,5366.65
712.39465332,5356.525
712.664611816,5381.925
712.934509277,5423.75
713.204467773,5392.25
713.474365234,5393.325
713.74420166,5394.8
714.014099121,5423.075
714.283874512,5413.925
714.553710938,5466.375
714.823486328,5444.1
715.093200684,5433.075
715.362915039,5437.825
715.632629395,5412.95
715.902282715,5416.7
716.171875,5406.35
716.441589355,5415.55
716.711181641,5384.825
716.980712891,5419.525
717.250244141,5419.375
717.519775391,5441.1
717.78918457,5433.375
718.058654785,5472.65
718.328125,5487.6
718.597473145,5450.8
718.866882324,5470.2
719.136230469,5480.475
719.405578613,5504.25
719.674865723,5495.25
719.944152832,5486.325
720.213439941,5475.65
720.48260498,5523.075
720.75177002,5512.825
721.020996094,5513.7
721.290100098,5515.9
721.559204102,5513.8
721.828308105,5523.025
722.097351074,5515.525
722.366455078,5515.15
722.635437012,5499.025
722.904418945,5500.325
723.173400879,5503.275
723.442321777,5522.025
723.711181641,5536.85
723.980102539,5558.875
724.248962402,5541.9
724.51776123,5530.525
724.786560059,5552.8
725.055358887,5541.525
725.324035645,5544.35
725.592834473,5556.4
725.86151123,5522.05
726.130187988,5562.45
726.398803711,5551.875
726.667419434,5544.55
726.935974121,5548.35
727.204528809,5518.325
727.473083496,5539.575
727.741638184,5539.975
728.010070801,5518.425
728.278564453,5507.8
728.546936035,5517.7
728.815368652,5477.45
729.08380127,5428.775
729.352111816,5412.25
729.620361328,5372.225
729.88873291,5416.35
730.156982422,5436.625
730.425231934,5464.925
730.693481445,5455.525
730.961669922,5510.125
731.229797363,5517.025
731.49798584,5543.45
731.766113281,5573.025
732.034118652,5625.15
732.302246094,5654.875
732.570251465,5666.3
732.838256836,5696.35
733.106262207,5760.95
733.374145508,5782.725
733.642089844,5830.075
733.909973145,5858.75
734.177856445,5904.775
734.445678711,5955.425
734.713562012,6023.425
734.981323242,6046.825
735.249084473,6066.2
735.516845703,6191.775
735.784545898,6240.675
736.052185059,6259.725
736.319885254,6313.05
736.587524414,6365.325
736.855102539,6393.35
737.122619629,6466.35
737.390197754,6510.775
737.657714844,6592.95
737.925170898,6587.925
738.192749023,6707.275
738.460144043,6732.775
738.727539062,6782.6
738.994995117,6840.575
739.262329102,6920.575
739.529663086,6991.675
739.79699707,7011.95
740.06427002,7054.15
740.331481934,7091.1
740.598754883,7148.575
740.865905762,7165.1
741.133056641,7263.775
741.40032959,7270.55
741.667358398,7357.8
741.934448242,7373.925
742.201599121,7377.175
742.468566895,7469.85
742.735534668,7522.875
743.002563477,7529.55
743.26953125,7535.6
743.536437988,7541.45
743.803405762,7653.775
744.0703125,7632.85
744.337097168,7706.925
744.604003906,7657.325
744.870727539,7734.1
745.137512207,7768.2
745.40423584,7795.675
745.670959473,7779.775
745.93762207,7812.675
746.204284668,7857.175
746.470947266,7859.925
746.737548828,7830.1
747.004089355,7876.175
747.270751953,7905.125
747.53717041,7939.75
747.803710938,7887.75
748.070251465,7885.025
748.336608887,7887.25
748.603027344,7863.0
748.869445801,7883.875
749.135803223,7900.35
749.402099609,7919.275
749.668457031,7942.675
749.934753418,7885.1
750.20098877,7859.075
750.467224121,7904.7
750.733459473,7891.3
750.999572754,7864.225
751.26574707,7832.85
751.531860352,7863.475
751.797912598,7862.325
752.064025879,7811.1
752.330078125,7807.9
752.596069336,7795.875
752.862060547,7790.65
753.127990723,7824.4
753.393920898,7777.3
753.659912109,7770.875
753.925720215,7809.05
754.19152832,7779.95
754.457397461,7716.0
754.723144531,7729.2
754.988952637,7700.45
755.254699707,7732.375
755.520385742,7753.8
755.786071777,7723.25
756.051696777,7680.15
756.317382812,7689.875
756.582946777,7680.1
756.848510742,7688.25
757.114074707,7658.55
757.379577637,7659.075
757.645080566,7727.25
757.910583496,7686.6
758.175964355,7636.825
758.441345215,7645.65
758.706848145,7540.7
758.972106934,7534.35
759.237426758,7564.475
759.502807617,7582.775
759.768005371,7611.8
760.03326416,7605.2
760.298522949,7528.425
760.563659668,7572.2
760.828857422,7545.6
761.093994141,7555.075
761.359130859,7489.15
761.624206543,7492.8
761.889282227,7487.175
762.15423584,7467.675
762.419250488,7466.05
762.684265137,7457.5
762.949157715,7425.025
763.214050293,7437.225
763.479003906,7452.3
763.743835449,7437.85
764.008666992,7422.35
764.2734375,7425.8
764.538208008,7440.25
764.802978516,7458.225
765.067687988,7435.475
765.332397461,7448.425
765.597045898,7393.05
765.861694336,7384.475
766.126342773,7357.45
766.390930176,7352.45
766.655395508,7332.4
766.920043945,7324.2
767.184509277,7341.0
767.448974609,7332.5
767.713439941,7341.85
767.977783203,7312.275
768.2421875,7330.55
768.506591797,7286.825
768.770874023,7382.65
769.03515625,7351.625
769.299499512,7342.0
769.563720703,7336.025
769.827941895,7307.775
770.092163086,7314.95
770.356323242,7313.4
770.620483398,7321.275
770.88458252,7357.375
771.148681641,7333.625
771.412719727,7324.775
771.676757812,7352.15
771.940734863,7298.625
772.204711914,7297.75
772.468688965,7315.925
772.73260498,7292.95
772.996459961,7298.0
773.260314941,6502.4
773.524169922,857.55
773.787963867,142.875
774.051696777,122.45
774.315551758,121.675
774.579223633,121.025
774.842895508,122.025
775.106567383,121.075
775.370239258,117.225
775.633789062,123.65
775.897399902,125.8
776.160949707,118.975
776.424499512,121.9
776.687988281,120.825
776.951477051,125.725
777.214904785,123.35
777.47833252,120.125
