191.299911499,98.425
191.603515625,103.45
191.907119751,98.55
192.210693359,106.1
192.514251709,98.525
192.817810059,103.85
193.121368408,104.7
193.42489624,106.575
193.728408813,99.8
194.031936646,98.45
194.33543396,95.475
194.638916016,113.75
194.94241333,98.375
195.245880127,97.575
195.549331665,96.65
195.852767944,102.975
196.156204224,199.575
196.459625244,194.2
196.763015747,195.675
197.066436768,205.375
197.369812012,193.325
197.673187256,197.1
197.9765625,192.6
198.279922485,198.075
198.583251953,192.15
198.886581421,196.525
199.18989563,203.575
199.493209839,196.2
199.79649353,189.65
200.09979248,202.75
200.403076172,195.4
200.706314087,200.1
201.009567261,193.65
201.312820435,198.05
201.616027832,188.525
201.919235229,185.85
202.222457886,193.0
202.525634766,196.05
202.828826904,185.45
203.132003784,184.2
203.435150146,187.3
203.738296509,186.3
204.041412354,189.275
204.344558716,190.475
204.647659302,192.075
204.950759888,192.2
205.253845215,191.85
205.556930542,188.275
205.859985352,188.75
206.163024902,189.75
206.466079712,190.375
206.769104004,201.875
207.072113037,194.65
207.375137329,192.5
207.678131104,191.8
207.981109619,195.0
208.284088135,192.975
208.587036133,197.5
208.889984131,195.3
209.19291687,197.075
209.495849609,197.3
209.798751831,199.15
210.101654053,197.75
210.404556274,199.55
210.707427979,197.425
211.010269165,207.925
211.31312561,203.325
211.615982056,204.275
211.918807983,207.925
212.221618652,201.3
212.524429321,201.9
212.827224731,213.45
213.130004883,205.75
213.432769775,212.075
213.735534668,212.5
214.038269043,216.225
214.341003418,216.675
214.643737793,216.1
214.946456909,222.025
215.249145508,225.1
215.551834106,222.9
215.854507446,223.05
216.157165527,223.4
216.45980835,229.65
216.762451172,231.225
217.065078735,232.15
217.36769104,235.175
217.670303345,240.375
217.972885132,242.725
218.275466919,242.4
218.578048706,239.8
218.880599976,248.425
219.183120728,250.375
219.485656738,257.525
219.788192749,276.85
220.090682983,293.075
220.393188477,319.2
220.695663452,359.425
220.998138428,390.4
221.300582886,450.15
221.603042603,494.2
221.905487061,564.175
222.207901001,650.85
222.510299683,732.125
222.812728882,839.9
223.115097046,947.9
223.41746521,1067.775
223.719848633,1188.1
224.022171021,1325.825
224.324508667,1464.4
224.626846313,1628.975
224.929168701,1767.125
225.231460571,1940.775
225.533737183,2071.15
225.836013794,2255.325
226.138290405,2396.875
226.440536499,2573.475
226.742767334,2692.55
227.044998169,2839.625
227.347213745,3024.725
227.649429321,3139.875
227.951629639,3260.45
228.253799438,3376.625
228.555953979,3514.825
228.858123779,3624.85
229.160263062,3731.975
229.462371826,3842.225
229.764511108,3943.05
230.066619873,4013.3
230.36869812,4134.0
230.670776367,4211.475
230.972854614,4340.125
231.274902344,4437.775
231.576950073,4538.8
231.878967285,4635.025
232.180999756,4752.625
232.48298645,4862.75
232.784988403,4936.95
233.086975098,5056.025
233.388946533,5136.875
233.69090271,5248.2
233.992858887,5340.15
234.294769287,5390.425
234.596694946,5468.825
234.898605347,5543.7
235.200500488,5589.9
235.502380371,5638.2
235.804244995,5699.6
236.106109619,5669.1
236.407958984,5706.95
236.709777832,5754.775
237.011581421,5783.425
237.313400269,5765.375
237.615203857,5764.275
237.916976929,5773.675
238.21875,5735.125
238.520507812,5771.3
238.822250366,5778.75
239.12399292,5740.5
239.425704956,5742.975
239.727401733,5669.7
240.02911377,5684.575
240.330780029,5609.3
240.632446289,5589.925
240.93409729,5584.55
241.23576355,5545.175
241.537384033,5536.75
241.839004517,5508.575
242.140594482,5461.375
242.442199707,5444.85
242.743774414,5405.0
243.045333862,5346.55
243.346923828,5294.575
243.648452759,5252.175
243.949966431,5179.925
244.251495361,5126.6
244.552993774,5069.75
244.854492188,4987.55
245.155975342,4913.575
245.457443237,4856.725
245.758880615,4748.675
246.060333252,4680.925
246.36177063,4580.5
246.66317749,4489.475
246.964569092,4400.075
247.265945435,4334.875
247.567337036,4253.275
247.86869812,4192.475
248.170059204,4123.675
248.471389771,4040.525
248.772705078,3995.7
249.074035645,3967.45
249.375335693,3887.325
249.676620483,3833.125
249.977890015,3825.125
250.279159546,3791.225
250.58039856,3769.325
250.881637573,3722.225
251.182876587,3709.425
251.484069824,3700.675
251.785263062,3670.825
252.086456299,3674.925
252.387619019,3639.875
252.688781738,3638.25
252.989929199,3625.075
253.291061401,3628.3
253.592178345,3634.55
253.893280029,3634.175
254.194366455,3641.35
254.49546814,3598.65
254.796524048,3562.3
255.097579956,3602.5
255.398620605,3560.725
255.699645996,3572.525
256.000640869,3520.0
256.30166626,3527.825
256.602661133,3531.875
256.903656006,3498.35
257.204589844,3508.0
257.505523682,3475.15
257.80645752,3483.65
258.107391357,3472.4
258.408294678,3446.05
258.709228516,3417.5
259.010070801,3391.0
259.310943604,3401.975
259.611846924,3351.65
259.912658691,3339.775
260.213500977,3325.6
260.514343262,3326.7
260.815124512,3289.75
261.115936279,3265.8
261.416717529,3278.825
261.717468262,3292.5
262.018218994,3273.375
262.318969727,3291.625
262.619689941,3337.6
262.920410156,3366.85
263.221130371,3405.85
263.521789551,3459.3
263.822479248,3500.475
264.123138428,3558.575
264.42376709,3596.5
264.72442627,3636.55
265.025054932,3674.55
265.325622559,3710.3
265.626251221,3731.45
265.926818848,3765.375
266.227386475,3785.0
266.527954102,3802.575
266.828460693,3846.125
267.12902832,3826.85
267.429534912,3819.975
267.730010986,3851.25
268.030517578,3863.025
268.330993652,3870.0
268.631439209,3907.375
268.931915283,3915.9
269.232299805,3937.35
269.532745361,3957.575
269.8331604,3979.675
270.133544922,4019.5
270.433929443,4066.675
270.734313965,4074.725
271.034637451,4133.55
271.334991455,4152.675
271.635314941,4235.375
271.935638428,4285.35
272.235931396,4360.0
272.536254883,4443.675
272.836486816,4544.3
273.136749268,4637.025
273.437011719,4763.15
273.737213135,4888.5
274.037445068,4966.1
274.337677002,5107.525
274.6378479,5242.975
274.938049316,5389.775
275.238220215,5493.675
275.538360596,5655.075
275.838500977,5791.5
276.138641357,5957.95
276.438751221,6057.475
276.738830566,6168.25
277.03894043,6261.3
277.338989258,6437.65
277.639038086,6547.75
277.939056396,6649.75
278.239105225,6757.5
278.539093018,6880.35
278.839141846,6959.425
279.139129639,7072.75
279.439086914,7180.55
279.739044189,7276.225
280.039001465,7397.075
280.338928223,7466.35
280.63885498,7547.175
280.938781738,7633.275
281.238647461,7703.675
281.538513184,7756.875
281.838409424,7806.65
282.138244629,7920.55
282.438079834,7926.075
282.737945557,8014.075
283.037719727,8049.7
283.337524414,8087.8
283.637298584,8124.05
283.937072754,8204.425
284.236816406,8214.75
284.536560059,8212.4
284.836303711,8273.5
285.136016846,8339.15
285.43572998,8367.675
285.735412598,8357.3
286.035064697,8385.85
286.334747314,8456.95
286.634368896,8475.725
286.933990479,8406.85
287.233642578,8381.4
287.533203125,8392.2
287.832824707,8311.875
288.132385254,8252.15
288.431945801,8118.975
288.731506348,7985.025
289.031036377,7824.45
289.330566406,7729.025
289.630065918,7692.05
289.92956543,7640.775
290.229034424,7754.425
290.528503418,7967.975
290.827941895,8129.3
291.127380371,8300.65
291.42678833,8428.325
291.726226807,8578.0
292.025604248,8622.525
292.324981689,8646.0
292.624359131,8658.4
292.923736572,8675.025
293.223052979,8685.775
293.522369385,8713.65
293.821685791,8639.2
294.12097168,8642.125
294.420257568,8619.225
294.719543457,8587.2
295.018768311,8583.375
295.318023682,8503.25
295.617248535,8460.15
295.916442871,8362.25
296.215667725,8299.825
296.514862061,8146.625
296.813995361,7937.7
297.11315918,7713.725
297.412322998,7574.075
297.711425781,7532.275
298.010559082,7714.55
298.309631348,7939.6
298.608734131,8162.825
298.907806396,8365.725
299.206848145,8523.0
299.505889893,8590.4
299.804901123,8688.875
300.103912354,8766.2
300.402954102,8879.425
300.701904297,8908.5
301.00088501,9024.025
301.299835205,9061.5
301.5987854,9091.75
301.897735596,9190.075
302.196624756,9228.35
302.495513916,9335.775
302.794403076,9357.675
303.093292236,9387.025
303.392120361,9484.8
303.690979004,9535.8
303.989837646,9582.55
304.288604736,9635.625
304.587402344,9606.375
304.886199951,9713.925
305.184967041,9738.1
305.483734131,9780.775
305.782501221,9822.9
306.081176758,9810.875
306.37991333,9861.9
306.678619385,9864.1
306.977294922,9876.875
307.275970459,9910.025
307.574645996,9908.625
307.873260498,9893.325
308.171875,9901.0
308.470489502,9902.25
308.769104004,9815.6
309.067687988,9805.975
309.366241455,9801.85
309.664794922,9787.825
309.963348389,9747.675
310.261871338,9765.675
310.560394287,9768.875
310.858856201,9790.625
311.157348633,9850.675
311.455810547,9844.275
311.754272461,9856.475
312.052703857,9938.65
312.351135254,9943.175
312.649536133,9930.675
312.947937012,9905.025
313.246307373,9956.35
313.544647217,9942.4
313.843017578,9903.425
314.141387939,9874.525
314.439697266,9906.25
314.738006592,9807.675
315.036315918,9755.125
315.334564209,9676.075
315.6328125,9592.525
315.931091309,9543.9
316.229309082,9399.475
316.527526855,9241.25
316.825744629,9220.125
317.123901367,9108.8
317.422088623,9062.75
317.720245361,9070.25
318.0184021,9078.3
318.316497803,9103.05
318.614654541,9123.375
318.912750244,9240.7
319.21081543,9220.0
319.50894165,9288.475
319.806945801,9285.725
320.104980469,9252.375
320.403045654,9255.4
320.701049805,9221.075
320.999023438,9204.2
321.297027588,9149.05
321.595001221,9100.95
321.892913818,9080.325
322.190887451,9011.75
322.488830566,8945.775
322.786712646,8912.1
323.084625244,8797.875
323.382507324,8790.575
323.680358887,8675.025
323.978210449,8619.7
324.276062012,8566.125
324.573852539,8493.2
324.871643066,8440.55
325.169464111,8333.725
325.467224121,8309.45
325.764984131,8201.55
326.062744141,8137.4
326.360473633,8067.075
326.658203125,7976.675
326.955871582,7907.875
327.253570557,7839.8
327.551239014,7799.825
327.848907471,7697.4
328.146514893,7626.625
328.444152832,7551.525
328.741790771,7516.1
329.039367676,7436.225
329.336914062,7368.825
329.634521484,7301.925
329.932067871,7242.1
330.229553223,7156.375
330.527160645,7108.475
330.824615479,7061.75
331.12210083,6962.525
331.419586182,6847.45
331.717041016,6817.8
332.014465332,6709.1
332.311920166,6674.2
332.609313965,6594.625
332.906707764,6584.475
333.204101562,6583.325
333.501495361,6567.225
333.798828125,6626.125
334.096160889,6669.1
334.39352417,6738.475
334.690795898,6774.225
334.988098145,6850.65
335.285400391,6899.75
335.582641602,6899.0
335.879882812,6945.45
336.177124023,6957.425
336.474334717,7020.675
336.77154541,7005.05
337.068725586,7038.8
337.365905762,7052.9
337.66305542,7086.7
337.960205078,7092.075
338.257324219,7109.75
338.554443359,7106.575
338.8515625,7137.4
339.148590088,7127.825
339.445648193,7146.125
339.742736816,7115.775
340.039764404,7089.95
340.336761475,7038.0
340.63381958,6981.875
340.930755615,6925.4
341.227722168,6881.65
341.524688721,6783.25
341.821624756,6735.425
342.118560791,6767.425
342.415496826,6842.95
342.712402344,6981.625
343.009246826,7143.275
343.306121826,7277.25
343.602966309,7324.125
343.899810791,7410.225
344.196624756,7503.25
344.493438721,7547.075
344.79019165,7569.85
345.086975098,7642.025
345.383758545,7699.225
345.680480957,7641.275
345.977203369,7671.35
346.273956299,7720.925
346.570617676,7701.125
346.86730957,7728.875
347.163970947,7704.05
347.460601807,7747.15
347.757232666,7763.45
348.053894043,7733.975
348.350463867,7659.225
348.647064209,7628.525
348.943634033,7624.5
349.24017334,7636.25
349.536712646,7553.8
349.833251953,7567.55
350.129760742,7535.9
350.426208496,7529.5
350.722747803,7524.8
351.019195557,7489.95
351.315612793,7456.575
351.612060547,7398.525
351.908508301,7352.05
352.204864502,7264.275
352.501281738,7240.775
352.797637939,7150.8
353.093963623,7049.65
353.390319824,7010.425
353.686645508,6892.075
353.982940674,6828.175
354.27923584,6799.525
354.575531006,6714.575
354.871765137,6722.625
355.167999268,6671.525
355.464233398,6673.225
355.760437012,6683.925
356.056640625,6685.025
356.352813721,6690.95
356.648956299,6677.1
356.945129395,6697.75
357.241271973,6657.65
357.537384033,6701.0
357.833496094,6627.625
358.129577637,6613.425
358.425628662,6592.55
358.721679688,6545.05
359.017730713,6537.15
359.313720703,6481.8
359.609710693,6420.975
359.905761719,6378.85
360.201721191,6353.175
360.497650146,6271.225
360.793609619,6230.75
361.089538574,6132.7
361.385437012,6060.0
361.681365967,6009.2
361.977233887,5963.8
362.273071289,5878.4
362.568908691,5770.3
362.864746094,5642.875
363.160552979,5504.975
363.456359863,5312.075
363.752166748,5173.05
364.047912598,5067.05
364.343658447,5032.925
364.639434814,5067.375
364.935119629,5088.85
365.230834961,5171.275
365.526550293,5183.525
365.822174072,5189.85
366.117858887,5205.425
366.413482666,5258.95
366.709075928,5269.125
367.004730225,5182.3
367.300292969,5168.05
367.595855713,5213.275
367.891448975,5103.425
368.186981201,4981.5
368.482513428,4914.05
368.778015137,4913.65
369.073547363,4856.0
369.36895752,4870.575
369.664428711,4761.675
369.95993042,4648.525
370.255310059,4570.775
370.550720215,4547.125
370.846160889,4528.85
371.14151001,4470.125
371.436859131,4446.0
371.73223877,4428.45
372.027557373,4380.05
372.322875977,4304.1
372.618164062,4279.25
372.913482666,4228.725
373.208709717,4207.125
373.503967285,4149.425
373.799194336,4106.1
374.094421387,4106.35
374.389648438,4067.075
374.684844971,4054.35
374.979980469,4096.575
375.275146484,4100.225
375.570281982,4132.05
375.865386963,4122.225
376.160522461,4067.525
376.455596924,4077.575
376.750640869,4155.55
377.045715332,4157.25
377.340759277,4198.175
377.635772705,4254.25
377.93081665,4277.975
378.225769043,4356.0
378.520751953,4392.175
378.815734863,4355.7
379.110656738,4527.35
379.405548096,4712.575
379.700500488,4537.325
379.995391846,4326.875
380.290252686,4363.925
380.585083008,4478.725
380.879974365,4518.4
381.17477417,4411.2
381.469543457,4344.475
381.764404297,4322.75
382.059143066,4352.55
382.353912354,4444.7
382.648651123,4546.0
382.943389893,4516.975
383.238067627,4338.675
383.532775879,4330.925
383.827484131,4269.25
384.12210083,4282.1
384.416778564,4218.325
384.711425781,4108.725
385.006011963,4132.825
385.300628662,4122.425
385.595184326,4205.75
385.88973999,4284.3
386.184295654,4396.025
386.478820801,4476.125
386.77331543,4566.3
387.067840576,4674.9
387.362335205,4771.475
387.656768799,4831.825
387.951202393,4847.3
388.245635986,4936.55
388.540039062,5005.35
388.834472656,5049.725
389.128875732,4952.05
389.423187256,4729.975
389.717559814,4679.925
390.011871338,4779.375
390.306182861,4815.375
390.600463867,4819.425
390.894775391,4907.6
391.189025879,4920.975
391.48324585,4915.725
391.777526855,4951.75
392.071685791,5170.675
392.365875244,5280.775
392.660064697,5332.1
392.95425415,5652.925
393.248382568,5632.3
393.542510986,5187.625
393.836608887,5006.9
394.130706787,4997.675
394.424804688,4945.75
394.71887207,5054.325
395.012878418,5039.725
395.306915283,4928.375
395.600921631,4861.25
395.894927979,4835.225
396.188903809,4908.85
396.482879639,4894.725
396.776794434,5092.45
397.070739746,5068.35
397.364654541,5083.825
397.658538818,5457.5
397.952423096,5496.75
398.246307373,5461.25
398.540100098,6000.25
398.833953857,5837.2
399.127746582,5373.15
399.421508789,5382.65
399.715301514,5317.225
400.009063721,5232.125
400.30279541,5076.375
400.596496582,4979.725
400.890258789,5188.875
401.183929443,5257.625
401.47756958,5129.25
401.771240234,4913.275
402.064880371,4920.025
402.35848999,4979.9
402.652130127,4877.525
402.945678711,4961.775
403.239257812,4890.375
403.532775879,4828.75
403.82635498,4893.2
404.119842529,4798.35
404.413360596,4785.25
404.706848145,4851.025
405.000274658,4774.8
405.293762207,4857.55
405.587188721,4903.6
405.880584717,4764.2
406.17401123,4554.225
406.467407227,4358.175
406.760742188,4365.625
407.054107666,4414.15
407.347442627,4353.2
407.640716553,4341.1
407.934051514,4384.525
408.227325439,4461.25
408.520568848,4662.2
408.813842773,4769.25
409.107086182,4582.9
409.400238037,4510.45
409.693450928,4443.725
409.986633301,4570.575
410.279754639,4496.425
410.572875977,4199.425
410.86605835,4134.4
411.159118652,4131.225
411.452209473,4148.4
411.745330811,4025.45
412.038360596,3933.075
412.331390381,3965.75
412.624420166,4017.525
412.917388916,3937.525
413.210388184,3737.625
413.503387451,3730.425
413.796295166,3610.575
414.089233398,3437.425
414.382141113,3358.225
414.675048828,3343.9
414.967926025,3364.25
415.260803223,3320.425
415.55368042,3351.95
415.846466064,3304.85
416.139282227,3402.575
416.432098389,3516.325
416.724853516,3506.275
417.017608643,3454.4
417.31036377,3466.225
417.603088379,3609.45
417.895782471,3570.075
418.188476562,3552.35
418.481140137,3618.45
418.773803711,3673.25
419.066436768,3640.775
419.359039307,3729.1
419.651641846,3736.975
419.944244385,3731.5
420.236816406,3687.1
420.529327393,3917.3
420.821899414,4004.05
421.114379883,3908.525
421.406860352,4184.875
421.699371338,4422.6
421.991821289,4362.4
422.284240723,4153.5
422.576721191,4003.75
422.869110107,3896.025
423.161468506,3837.125
423.453857422,3880.875
423.74621582,3750.35
424.038543701,3625.675
424.330871582,3586.325
424.623168945,3521.375
424.915435791,3664.4
425.207702637,3641.275
425.499969482,3581.325
425.792205811,3516.6
426.084411621,3249.725
426.376617432,3335.475
426.668762207,3425.3
426.9609375,3285.075
427.253082275,3416.85
427.545196533,3847.725
427.837310791,3543.225
428.129425049,3259.75
428.421447754,3497.825
428.713531494,3474.725
429.005554199,3469.0
429.297576904,3475.075
429.589599609,3920.225
429.881561279,4260.175
430.173522949,4046.625
430.465484619,4003.15
430.757415771,4073.95
431.049316406,3826.925
431.341186523,3578.325
431.633117676,3491.55
431.924957275,3168.55
432.21673584,3057.1
432.508636475,3214.55
432.800415039,3236.55
433.092163086,3119.25
433.383972168,3093.65
433.675689697,3833.075
433.967437744,4342.975
434.259155273,3356.75
434.550872803,3019.05
434.842498779,3098.35
435.134185791,3213.15
435.425842285,3237.45
435.717437744,3151.55
436.009063721,2967.05
436.30065918,3110.325
436.592224121,3466.1
436.883758545,3283.225
437.175323486,2996.175
437.466827393,2963.8
437.758331299,2999.625
438.049804688,3016.95
438.341247559,3071.275
438.63269043,3160.975
438.924163818,3142.05
439.215515137,3108.2
439.50692749,2998.2
439.798309326,3010.95
440.089660645,3019.675
440.380981445,2933.275
440.672332764,2920.35
440.963623047,3187.375
441.254882812,3685.925
441.546173096,3877.85
441.837402344,3595.45
442.128631592,3420.05
442.41986084,3376.95
442.711029053,3245.625
443.002197266,3338.15
443.293365479,3538.925
443.584503174,3668.0
443.875610352,3636.75
444.166717529,3360.3
444.457794189,3420.125
444.748840332,3409.575
445.039916992,3337.7
445.330932617,3469.95
445.621948242,3278.425
445.912963867,3090.275
446.203918457,3314.95
446.494812012,3564.775
446.785827637,3338.075
447.076721191,3157.85
447.367584229,3154.65
447.658447266,3117.0
447.949371338,3187.5
448.24017334,3034.625
448.530975342,2977.475
448.821838379,3156.7
449.112579346,3242.325
449.40335083,3168.1
449.694152832,3190.925
449.984863281,3201.625
450.27557373,3121.55
450.56628418,3186.575
450.856933594,3197.725
451.147583008,3054.225
451.438262939,2922.75
451.728881836,3140.575
452.019470215,3251.6
452.310089111,3028.725
452.600646973,3056.15
452.891174316,3104.6
453.181732178,2933.3
453.472229004,2791.45
453.762695312,2917.425
454.053222656,2940.625
454.343658447,2810.85
454.634063721,2736.375
454.924530029,2918.425
455.214935303,3075.45
455.505279541,3149.4
455.795715332,2982.025
456.086029053,2777.275
456.376312256,2772.3
456.666687012,2816.1
456.956939697,2915.3
457.247192383,2916.15
457.537445068,2995.675
457.827728271,3178.225
458.117919922,3111.25
458.408081055,3023.575
458.698303223,3215.975
458.988433838,3146.725
459.278564453,2947.7
459.568725586,3242.225
459.858825684,3391.7
460.148864746,3051.725
460.438995361,2998.675
460.729034424,3074.9
461.019042969,3085.05
461.309082031,3268.4
461.599060059,3166.2
461.889007568,2667.175
462.179016113,2490.25
462.468933105,2749.175
462.75881958,2852.55
463.048736572,2573.925
463.338592529,2872.975
463.628448486,3243.9
463.918365479,2932.925
464.2081604,3101.475
464.497924805,3064.9
464.787780762,3197.65
465.077514648,3524.6
465.367218018,3133.125
465.657012939,3333.725
465.946685791,3771.25
466.236358643,3364.125
466.526092529,2799.025
466.815734863,2783.5
467.105316162,2710.95
467.394927979,2742.875
467.684570312,2593.125
467.974121094,2686.7
468.263671875,2787.775
468.553222656,2571.75
468.842773438,2458.125
469.132232666,2338.325
469.42175293,2374.675
469.711212158,2353.35
470.000640869,2226.45
470.290100098,2280.1
470.579498291,2309.05
470.868835449,2320.25
471.158294678,2269.125
471.447601318,2262.375
471.736907959,2340.525
472.026275635,2403.425
472.315551758,2391.35
472.604797363,2373.55
472.894104004,2520.45
473.183319092,2637.6
473.47253418,2614.675
473.761779785,2617.55
474.05090332,2550.025
474.340087891,2492.8
474.629241943,2427.6
474.918365479,2603.175
475.207427979,2889.525
475.496551514,2916.9
475.785614014,2649.425
476.074645996,2428.325
476.363708496,2522.275
476.652679443,2693.375
476.941650391,2498.25
477.230682373,2324.15
477.519622803,2337.825
477.808502197,2493.425
478.097412109,2779.325
478.386352539,2707.4
478.675201416,2447.375
478.964050293,2336.125
479.25289917,2535.475
479.541717529,2603.75
479.830474854,2421.475
480.11932373,2795.3
480.408050537,2980.775
480.696777344,2579.025
480.985534668,2441.75
481.274200439,2537.3
481.562866211,2807.775
481.851593018,2833.35
482.140197754,2767.35
482.428833008,2600.8
482.717468262,2357.375
483.006011963,2415.45
483.294586182,2550.175
483.5831604,2580.275
483.871673584,2437.3
484.16015625,2595.325
484.448699951,2844.625
484.7371521,2897.175
485.02557373,2889.95
485.314025879,2626.6
485.602416992,4068.425
485.890777588,14299.725
486.179199219,12805.55
486.467559814,3459.775
486.755859375,2507.725
487.044219971,2929.9
487.332519531,3117.65
487.620758057,2671.125
487.908966064,2405.95
488.197265625,2170.1
488.485473633,2086.65
488.773651123,2211.875
489.061859131,2198.575
489.350006104,2151.35
489.638122559,2089.875
489.926300049,2108.85
490.214355469,2057.0
490.502441406,2007.25
490.790527344,1929.8
491.078552246,2140.275
491.366546631,2139.175
491.654602051,1876.825
491.942565918,1967.0
492.230499268,2011.325
492.518493652,1977.5
492.806396484,2015.25
493.094268799,1909.0
493.382202148,1952.2
493.670074463,2082.725
493.957885742,1918.6
494.245727539,1900.3
494.533508301,2092.7
494.821289062,1974.725
495.109100342,1813.375
495.396850586,1747.175
495.684539795,1709.75
495.972290039,1943.7
496.25994873,2308.525
496.547607422,2324.2
496.835296631,2143.025
497.122894287,1777.2
497.410522461,1680.675
497.6980896,1698.675
497.985687256,1654.625
498.273223877,1778.125
498.560760498,1848.95
498.848266602,1882.425
499.135772705,1844.1
499.423217773,1897.175
499.710693359,2006.05
499.998138428,1935.675
500.285522461,1755.55
500.572937012,1669.75
500.860290527,1741.275
501.147644043,1850.525
501.434997559,2099.625
501.722290039,1957.125
502.00958252,1697.925
502.296875,1981.675
502.584106445,1967.35
502.871337891,1777.0
503.158599854,1860.725
503.445770264,1948.475
503.732910156,1917.425
504.020141602,1705.7
504.307220459,1691.175
504.594329834,1729.5
504.881469727,1657.525
505.168518066,1735.3
505.455535889,1813.175
505.742614746,1675.125
506.029632568,1607.225
506.316589355,1820.825
506.603637695,1904.325
506.890563965,1700.0
507.177459717,1511.75
507.464385986,1419.075
507.751312256,1672.625
508.038146973,1760.2
508.325012207,1609.6
508.611877441,1677.25
508.898681641,1678.175
509.185424805,1511.025
509.472259521,1462.4
509.759002686,1553.775
510.045715332,1584.325
510.332458496,1530.325
510.619140625,1593.5
510.905761719,1497.125
511.192504883,1488.725
511.479095459,1541.325
511.765686035,1493.725
512.052307129,1401.8
512.338928223,1332.825
512.625427246,1396.5
512.91204834,1478.45
513.198486328,1438.625
513.484985352,1413.025
513.77142334,1326.65
514.057922363,1373.375
514.344299316,1371.3
514.63079834,1327.875
514.917175293,1325.075
515.203552246,1202.825
515.489868164,1187.575
515.776245117,1311.3
516.0625,1359.85
516.348815918,1262.65
516.635070801,1295.325
516.921325684,1362.275
517.207580566,1282.2
517.493774414,1191.35
517.779968262,1189.025
518.066101074,1245.15
518.352294922,1189.225
518.638366699,1186.35
518.924499512,1269.125
519.210632324,1366.5
519.496643066,1320.45
519.782714844,1216.175
520.068786621,1182.65
520.354736328,1135.15
520.640686035,1086.025
520.926757812,1139.875
521.212646484,1226.8
521.498535156,1226.575
521.784484863,1170.3
522.0703125,1093.325
522.356262207,1118.025
522.642089844,1192.025
522.927856445,1193.225
523.213684082,1184.175
523.499511719,1177.05
523.78527832,1218.575
524.070983887,1272.25
524.356750488,1255.85
524.64239502,1213.875
524.928039551,1203.775
525.213806152,1214.925
525.499389648,1205.125
525.784973145,1241.95
526.070617676,1277.2
526.356140137,1251.3
526.641723633,1250.35
526.927307129,1318.2
527.212768555,1323.475
527.498291016,1307.25
527.783752441,1312.4
528.069213867,1280.025
528.354675293,1301.175
528.640014648,1492.8
528.925476074,1560.675
529.21081543,1475.05
529.496154785,1449.65
529.781555176,1410.625
530.066833496,1423.9
530.352050781,1457.675
530.637390137,1443.3
530.922607422,1427.8
531.207824707,1429.625
531.493041992,1414.975
531.778198242,1488.5
532.063354492,1458.675
532.348571777,1399.925
532.633666992,1422.225
532.918762207,1506.4
533.203857422,1608.3
533.488891602,1639.775
533.773925781,1574.05
534.059020996,1555.55
534.343933105,1574.95
534.628967285,1556.875
534.91394043,1569.65
535.198852539,1580.0
535.483703613,1555.125
535.768676758,1493.65
536.053527832,1496.55
536.338317871,1457.05
536.62322998,1374.625
536.90802002,1352.325
537.192810059,1380.7
537.477539062,1460.0
537.762329102,1508.825
538.047058105,1546.0
538.331726074,1581.65
538.616455078,1572.1
538.901123047,1557.575
539.18572998,1599.875
539.470397949,1604.025
539.755004883,1583.05
540.039550781,1548.4
540.32409668,1493.8
540.608703613,1541.025
540.893188477,1649.375
541.17767334,1674.35
541.462158203,1659.3
541.746643066,1610.75
542.031066895,1655.6
542.315429688,1703.4
542.59979248,1698.225
542.884216309,1683.875
543.168579102,1670.975
543.452941895,1677.1
543.737243652,1735.925
544.021484375,1789.15
544.305725098,1770.55
544.590026855,1744.55
544.874267578,1768.525
545.158447266,1840.775
545.442626953,1752.525
545.726806641,1621.475
546.010925293,1675.175
546.29510498,1713.925
546.579162598,1699.675
546.863220215,1733.925
547.147277832,1818.125
547.431335449,1896.9
547.715332031,1961.625
547.999328613,2082.525
548.283325195,2086.5
548.567260742,1922.45
548.851135254,1898.525
549.135070801,1865.075
549.419006348,1769.775
549.702819824,1883.925
549.986755371,1952.65
550.270507812,1908.075
550.554321289,1957.1
550.83807373,1975.125
551.121826172,1920.275
551.405517578,1957.425
551.689331055,2072.025
551.973022461,2320.15
552.256652832,2390.15
552.540344238,2265.85
552.823974609,2253.1
553.107543945,2229.3
553.391174316,2300.2
553.674743652,2350.475
553.958251953,2377.7
554.241821289,2376.85
554.525268555,2294.8
554.808776855,2295.675
555.092285156,2521.35
555.375671387,2597.475
555.659057617,2594.275
555.942504883,2613.4
556.225891113,2661.175
556.509216309,2607.85
556.792541504,2520.275
557.075866699,2604.125
557.359130859,2644.55
557.64239502,2644.175
557.92565918,2739.35
558.208862305,2704.125
558.49206543,2640.925
558.77532959,2650.475
559.058410645,2701.0
559.341552734,2699.2
559.624694824,2743.2
559.907775879,2838.075
560.190856934,2952.75
560.473937988,2936.8
560.756896973,2986.325
561.039978027,3030.425
561.322937012,2988.85
561.605895996,2972.325
561.88885498,2925.1
562.171813965,2946.35
562.454650879,2916.8
562.737548828,2953.675
563.020446777,3026.575
563.303283691,3043.75
563.58605957,3083.6
563.868896484,3131.3
564.151672363,3168.025
564.434387207,3194.025
564.717163086,3180.3
564.99987793,3208.025
565.282531738,3271.925
565.565185547,3219.425
565.847839355,3219.075
566.130432129,3345.775
566.413085938,3330.2
566.695678711,3333.05
566.978149414,3449.15
567.260681152,3607.125
567.543273926,3693.85
567.825744629,3585.05
568.108154297,3610.675
568.390686035,3777.7
568.673095703,3884.775
568.955505371,3937.575
569.237854004,3978.675
569.520202637,4250.85
569.802490234,4501.875
570.084838867,4467.025
570.367126465,4303.825
570.649414062,4296.925
570.93170166,4698.3
571.213928223,4774.25
571.496154785,4507.05
571.778381348,4729.425
572.06048584,5046.65
572.342590332,4556.25
572.624755859,4159.675
572.906860352,4229.725
573.188903809,4972.425
573.470947266,5229.625
573.752990723,4965.5
574.03503418,5060.6
574.317016602,5479.3
574.598937988,5239.3
574.88092041,5126.325
575.162841797,5327.1
575.444763184,4920.975
575.726623535,4638.225
576.008483887,4703.1
576.290344238,5134.4
576.572143555,5346.525
576.853881836,5408.3
577.135681152,5284.725
577.417419434,5357.325
577.699157715,6290.275
577.980895996,6467.625
578.262573242,5787.8
578.544128418,5256.5
578.825866699,5177.05
579.107421875,4847.325
579.388977051,5021.575
579.670593262,5458.25
579.952148438,5275.475
580.233642578,5395.925
580.515197754,5518.275
580.796691895,5172.35
581.078125,5363.225
581.359619141,6977.0
581.640991211,7109.675
581.922363281,6092.15
582.203796387,6167.9
582.485107422,5750.825
582.766418457,5341.0
583.047790527,5170.6
583.329040527,5060.325
583.610290527,4940.9
583.891540527,5059.725
584.172790527,5392.65
584.453918457,5390.925
584.735107422,5445.475
585.016235352,5931.325
585.297363281,5909.375
585.578552246,5697.625
585.859619141,5627.85
586.140625,5386.65
586.421630859,5233.9
586.702697754,5278.575
586.983642578,5521.325
587.264648438,5703.15
587.545654297,5634.275
587.826477051,5574.125
588.107421875,5344.175
588.388305664,5408.5
588.669189453,5503.1
588.950012207,5333.85
589.230834961,5222.65
589.511657715,5341.55
589.792358398,5450.15
590.073120117,5431.875
590.353881836,5398.575
590.63458252,5419.225
590.915283203,5372.65
591.195922852,5378.375
591.4765625,5406.85
591.757202148,5423.65
592.037780762,5442.125
592.31829834,5429.375
592.598937988,5660.675
592.879394531,5814.875
593.159912109,5736.075
593.440429688,5671.45
593.720825195,5642.45
594.001281738,5615.35
594.281677246,5538.725
594.562072754,5564.125
594.842407227,5652.975
595.122802734,5700.725
595.403137207,5662.55
595.683410645,5667.75
595.963623047,5624.55
596.243896484,5594.025
596.524169922,5573.525
596.804382324,5600.275
597.084533691,5650.675
597.364746094,5662.5
597.644836426,5669.625
597.924987793,5655.8
598.205078125,5647.8
598.485107422,5644.775
598.765197754,5781.425
599.045227051,5826.45
599.325195312,5724.4
599.605224609,5691.375
599.885192871,5721.425
600.165100098,5793.175
600.445007324,5724.725
600.724914551,5733.925
601.004760742,5748.825
601.284667969,5747.4
601.56451416,5720.075
601.844238281,5730.125
602.124084473,5727.375
602.403808594,5716.525
602.683532715,5741.275
602.963256836,5734.875
603.242919922,5776.85
603.522583008,5822.825
603.802246094,5795.5
604.081848145,5765.375
604.36138916,5741.3
604.641052246,5771.8
604.920532227,5735.825
605.200073242,5776.6
605.479614258,5806.175
605.759094238,5836.45
606.038574219,5819.675
606.317932129,5749.425
606.597412109,5752.6
606.87677002,5757.35
607.15612793,5802.2
607.435546875,5804.775
607.714782715,5818.95
607.99407959,5778.2
608.273376465,5757.475
608.552612305,5781.1
608.831848145,5795.9
609.111083984,5794.35
609.390258789,5767.625
609.669433594,5763.8
609.948608398,5852.475
610.227722168,5817.575
610.506713867,5749.825
610.785888672,5778.75
611.064880371,5759.45
611.34387207,5749.5
611.622924805,5782.475
611.901916504,5773.775
612.180847168,5738.125
612.459777832,5713.65
612.738647461,5720.9
613.01751709,5680.275
613.296447754,5629.725
613.575317383,5609.175
613.854064941,5566.0
614.132873535,5477.45
614.411621094,5409.85
614.690368652,5357.05
614.969177246,5330.45
615.247802734,5226.375
615.526489258,5217.175
615.805175781,5087.05
616.08380127,4973.825
616.362365723,4880.4
616.640991211,4828.675
616.919555664,4780.375
617.198059082,4919.475
617.4765625,5172.425
617.755126953,5305.175
618.033569336,5362.425
618.311950684,5368.275
618.590454102,5352.275
618.868774414,5314.925
619.147155762,5324.9
619.425598145,5306.275
619.703857422,5323.975
619.982177734,5328.075
620.260498047,5331.925
620.538757324,5312.425
620.816955566,5284.55
621.095214844,5228.2
621.373413086,5251.825
621.651550293,5315.125
621.929748535,5314.75
622.207824707,5310.45
622.485900879,5331.775
622.764038086,5328.325
623.042053223,5364.6
623.320007324,5403.075
623.598083496,5373.55
623.876037598,5357.8
624.153991699,5385.85
624.432006836,5395.3
624.709838867,5419.75
624.987731934,5414.0
625.265563965,5378.525
625.543395996,5423.45
625.821228027,5469.75
626.098999023,5443.925
626.376831055,5488.2
626.654541016,5526.9
626.932250977,5567.475
627.209960938,5615.025
627.487670898,5618.3
627.765319824,5650.975
628.04296875,5662.0
628.320495605,5673.925
628.598083496,5669.4
628.875671387,5688.875
629.153259277,5728.45
629.430725098,5764.6
629.708251953,5756.075
629.985656738,5787.55
630.263122559,5802.425
630.540588379,5824.65
630.817932129,5853.5
631.095275879,5893.3
631.372680664,5938.925
631.649963379,5978.0
631.927246094,6022.75
632.204589844,6065.85
632.481811523,6130.9
632.759033203,6228.3
633.036254883,6200.3
633.313415527,6312.975
633.590576172,6349.8
633.867736816,6470.5
634.144836426,6530.375
634.421875,6553.925
634.698913574,6653.075
634.976013184,6708.675
635.252990723,6779.925
635.529968262,6794.3
635.807006836,6856.3
636.08392334,6869.55
636.360839844,6755.275
636.637756348,6650.325
636.914611816,6637.7
637.191467285,6580.825
637.468261719,6665.225
637.745056152,6635.95
638.021789551,6682.8
638.298583984,6686.075
638.575317383,6737.75
638.851989746,6716.0
639.12878418,6713.0
639.405395508,6722.075
639.682006836,6763.5
639.958618164,6766.45
640.235229492,6746.95
640.511779785,6800.675
640.788330078,6777.625
641.064880371,6759.05
641.341308594,6756.05
641.617797852,6767.925
641.894226074,6770.775
642.170654297,6776.875
642.44708252,6776.475
642.723388672,6783.475
642.999755859,6785.5
643.276123047,6750.5
643.552429199,6735.35
643.828674316,6750.55
644.104919434,6724.575
644.381164551,6721.95
644.657348633,6759.45
644.933532715,6694.2
645.209716797,6720.175
645.485839844,6729.025
645.761901855,6739.45
646.038024902,6689.65
646.314086914,6750.825
646.590087891,6696.225
646.866149902,6749.275
647.142150879,6681.6
647.41809082,6682.225
647.694030762,6689.9
647.969970703,6651.225
648.245788574,6678.425
648.521728516,6676.55
648.797546387,6685.2
649.073303223,6675.025
649.349182129,6634.125
649.624938965,6648.025
649.900634766,6665.7
650.176391602,6660.775
650.452087402,6647.8
650.727783203,6673.15
651.003479004,6685.425
651.279052734,6665.175
651.554626465,6661.225
651.83026123,6633.4
652.105773926,6686.925
652.381286621,6630.2
652.656860352,6640.975
652.932312012,6666.925
653.207763672,6658.825
653.483215332,6673.15
653.758605957,6656.725
654.033935547,6676.025
654.309326172,6669.05
654.584716797,6711.55
654.859985352,6682.575
655.135253906,6720.65
655.410583496,6742.525
655.685791016,7791.025
655.9609375,12108.375
656.236206055,11826.9
656.511291504,7843.775
656.786437988,6912.15
657.061645508,6790.15
657.336669922,6767.925
657.611694336,6828.425
657.886779785,6840.075
658.161804199,6860.25
658.436828613,6789.875
658.711791992,6805.375
658.986755371,6863.5
659.261657715,6839.775
659.536621094,6872.075
659.811401367,6857.3
660.086303711,6871.85
660.36114502,6894.6
660.635864258,6874.375
660.910644531,6895.3
661.185424805,6890.1
661.460205078,6928.075
661.734863281,6906.4
662.009521484,6910.525
662.284179688,6916.925
662.558776855,6980.6
662.833435059,7019.925
663.108032227,7021.85
663.382568359,6993.95
663.657043457,7052.275
663.93157959,7083.975
664.206054688,7059.875
664.48046875,7111.85
664.755004883,7132.1
665.02935791,7155.45
665.303710938,7151.2
665.578125,7179.75
665.852416992,7183.9
666.126708984,7190.475
666.401062012,7175.725
666.675292969,7255.425
666.949462891,7266.65
667.223754883,7257.55
667.497924805,7276.1
667.772094727,7283.85
668.046264648,7248.525
668.3203125,7357.85
668.594421387,7362.1
668.868469238,7365.75
669.14251709,7389.825
669.416503906,7415.45
669.690551758,7399.55
669.964477539,7395.525
670.23840332,7440.775
670.512329102,7411.425
670.786254883,7402.375
671.060058594,7460.975
671.333984375,7498.0
671.607788086,7522.2
671.881530762,7496.35
672.155334473,7548.175
672.429077148,7521.325
672.702758789,7554.375
672.97644043,7562.975
673.25012207,7580.525
673.523742676,7549.175
673.797302246,7547.15
674.070922852,7641.775
674.344482422,7646.6
674.618041992,7663.65
674.891601562,7652.275
675.165100098,7670.075
675.438476562,7673.55
675.711975098,7696.7
675.985412598,7663.75
676.258789062,7661.375
676.532165527,7712.875
676.805480957,7726.9
677.078796387,7746.35
677.352111816,7771.625
677.625366211,7746.525
677.898620605,7742.475
678.171875,7790.525
678.445007324,7763.025
678.718200684,7802.925
678.991394043,7804.05
679.264404297,7816.0
679.537536621,7858.95
679.81060791,7840.575
680.083679199,7837.3
680.356689453,7862.375
680.629699707,7871.75
680.902648926,7845.5
681.175598145,7929.175
681.448547363,7945.35
681.721435547,7924.275
681.99420166,7940.175
682.267150879,7908.725
682.539916992,7974.325
682.812744141,7956.75
683.085510254,7958.975
683.358215332,8005.05
683.63092041,7973.675
683.903625488,7970.125
684.176330566,7962.05
684.448913574,7971.8
684.721557617,7960.95
684.99420166,8033.475
685.266662598,8015.375
685.539245605,8028.125
685.811767578,8063.725
686.084289551,8070.55
686.356689453,8103.725
686.629150391,8130.975
686.901550293,8165.5
687.17401123,8146.5
687.446350098,8182.7
687.718688965,8196.225
687.990966797,8230.3
688.263305664,8252.475
688.535522461,8219.6
688.807739258,8213.925
689.079956055,8277.15
689.352172852,8301.675
689.624328613,8278.475
689.896484375,8328.05
690.168518066,8326.95
690.440612793,8365.675
690.71270752,8358.375
690.984741211,8387.425
691.256713867,8417.775
691.528747559,8402.175
691.800720215,8406.5
692.072631836,8416.775
692.344543457,8476.2
692.616394043,8473.0
692.888244629,8459.4
693.160095215,8525.325
693.431945801,8538.975
693.703674316,8536.225
693.975463867,8523.25
694.247131348,8549.475
694.518859863,8559.525
694.790588379,8613.925
695.062255859,8602.975
695.33380127,8596.825
695.60546875,8596.3
695.87701416,8643.85
696.148498535,8657.475
696.42010498,8664.85
696.691589355,8698.075
696.96307373,8730.525
697.234558105,8763.9
697.50592041,8746.7
697.777282715,8798.375
698.048706055,8781.45
698.320068359,8823.725
698.591308594,8757.25
698.862670898,8783.075
699.133972168,8842.625
699.405151367,8803.325
699.676391602,8887.125
699.947570801,8846.925
700.21875,8889.3
700.489868164,8887.2
700.761047363,8901.025
701.032104492,8954.15
701.303100586,8901.2
701.57421875,8960.075
701.845214844,8993.075
702.116149902,9020.15
702.387207031,8995.3
702.65814209,9024.675
702.928955078,9045.45
703.199951172,8996.7
703.47076416,8957.675
703.741577148,8988.15
704.012451172,9042.95
704.28314209,9043.775
704.553955078,9010.775
704.824707031,9058.625
705.095397949,9096.85
705.366027832,9100.775
705.63671875,9094.7
705.907348633,9075.25
706.17791748,9081.675
706.448486328,9124.125
706.719055176,9182.0
706.989562988,9193.95
707.260131836,9220.7
707.530517578,9237.85
707.800964355,9243.625
708.071411133,9160.0
708.341796875,9189.925
708.612182617,9185.0
708.882446289,9180.05
709.152893066,9219.55
709.423156738,9226.9
709.693359375,9181.4
709.963623047,9215.9
710.233825684,9273.6
710.503967285,9209.225
710.774169922,9232.875
711.044311523,9200.225
711.31439209,9217.55
711.584533691,9240.775
711.854553223,9269.3
712.124572754,9273.2
712.39465332,9228.625
712.664611816,9270.05
712.934509277,9343.975
713.204467773,9280.375
713.474365234,9297.75
713.74420166,9291.675
714.014099121,9319.85
714.283874512,9302.525
714.553710938,9348.625
714.823486328,9340.4
715.093200684,9318.025
715.362915039,9355.75
715.632629395,9334.8
715.902282715,9305.45
716.171875,9312.3
716.441589355,9322.275
716.711181641,9287.475
716.980712891,9343.675
717.250244141,9312.175
717.519775391,9349.55
717.78918457,9361.025
718.058654785,9404.35
718.328125,9419.25
718.597473145,9355.5
718.866882324,9364.425
719.136230469,9397.6
719.405578613,9447.4
719.674865723,9449.4
719.944152832,9415.825
720.213439941,9402.025
720.48260498,9438.65
720.75177002,9445.55
721.020996094,9466.4
721.290100098,9446.575
721.559204102,9395.4
721.828308105,9476.325
722.097351074,9448.25
722.366455078,9423.325
722.635437012,9402.775
722.904418945,9400.525
723.173400879,9441.7
723.442321777,9481.825
723.711181641,9421.55
723.980102539,9450.525
724.248962402,9446.15
724.51776123,9426.475
724.786560059,9453.375
725.055358887,9452.65
725.324035645,9462.7
725.592834473,9465.625
725.86151123,9438.475
726.130187988,9463.025
726.398803711,9417.05
726.667419434,9451.375
726.935974121,9433.925
727.204528809,9390.425
727.473083496,9417.2
727.741638184,9363.125
728.010070801,9338.425
728.278564453,9361.475
728.546936035,9362.4
728.815368652,9291.875
729.08380127,9215.775
729.352111816,9184.15
729.620361328,9093.375
729.88873291,9169.925
730.156982422,9232.175
730.425231934,9201.975
730.693481445,9212.25
730.961669922,9312.2
731.229797363,9311.175
731.49798584,9325.6
731.766113281,9420.225
732.034118652,9474.925
732.302246094,9524.225
732.570251465,9566.25
732.838256836,9581.3
733.106262207,9682.525
733.374145508,9711.625
733.642089844,9783.45
733.909973145,9806.3
734.177856445,9902.925
734.445678711,10022.425
734.713562012,10122.05
734.981323242,10113.75
735.249084473,10173.9
735.516845703,10329.65
735.784545898,10396.35
736.052185059,10439.525
736.319885254,10543.25
736.587524414,10581.525
736.855102539,10645.325
737.122619629,10793.1
737.390197754,10802.75
737.657714844,10906.825
737.925170898,10962.75
738.192749023,11084.675
738.460144043,11155.125
738.727539062,11197.575
738.994995117,11295.15
739.262329102,11414.725
739.529663086,11528.2
739.79699707,11586.225
740.06427002,11645.6
740.331481934,11726.775
740.598754883,11798.0
740.865905762,11823.575
741.133056641,11996.325
741.40032959,11966.5
741.667358398,12049.75
741.934448242,12115.525
742.201599121,12121.25
742.468566895,12232.375
742.735534668,12262.85
743.002563477,12315.25
743.26953125,12278.925
743.536437988,12362.2
743.803405762,12481.35
744.0703125,12416.075
744.337097168,12531.7
744.604003906,12445.025
744.870727539,12555.025
745.137512207,12603.15
745.40423584,12618.525
745.670959473,12619.725
745.93762207,12632.225
746.204284668,12669.725
746.470947266,12671.775
746.737548828,12644.825
747.004089355,12684.8
747.270751953,12707.35
747.53717041,12747.525
747.803710938,12672.9
748.070251465,12662.05
748.336608887,12672.025
748.603027344,12653.275
748.869445801,12619.4
749.135803223,12647.35
749.402099609,12655.55
749.668457031,12659.1
749.934753418,12606.75
750.20098877,12540.6
750.467224121,12618.175
750.733459473,12585.05
750.999572754,12548.4
751.26574707,12459.15
751.531860352,12490.35
751.797912598,12464.375
752.064025879,12384.65
752.330078125,12426.5
752.596069336,12389.15
752.862060547,12360.075
753.127990723,12394.125
753.393920898,12356.95
753.659912109,12311.0
753.925720215,12365.95
754.19152832,12305.05
754.457397461,12231.325
754.723144531,12210.05
754.988952637,12178.325
755.254699707,12222.875
755.520385742,12205.15
755.786071777,12194.8
756.051696777,12171.7
756.317382812,12145.975
756.582946777,12074.85
756.848510742,12084.65
757.114074707,12052.125
757.379577637,12018.2
757.645080566,12083.225
757.910583496,12047.0
758.175964355,11999.2
758.441345215,11937.875
758.706848145,11784.925
758.972106934,11834.275
759.237426758,11836.35
759.502807617,11869.425
759.768005371,11831.225
760.03326416,11804.0
760.298522949,11692.825
760.563659668,11750.05
760.828857422,11722.725
761.093994141,11742.7
761.359130859,11654.95
761.624206543,11633.875
761.889282227,11612.125
762.15423584,11594.075
762.419250488,11601.5
762.684265137,11558.7
762.949157715,11524.1
763.214050293,11529.4
763.479003906,11502.875
763.743835449,11457.825
764.008666992,11458.15
764.2734375,11442.15
764.538208008,11484.225
764.802978516,11519.975
765.067687988,11478.975
765.332397461,11486.9
765.597045898,11382.45
765.861694336,11386.9
766.126342773,11318.1
766.390930176,11305.625
766.655395508,11223.225
766.920043945,11208.525
767.184509277,11210.6
767.448974609,11239.05
767.713439941,11205.975
767.977783203,11156.475
768.2421875,11202.225
768.506591797,11133.225
768.770874023,11243.875
769.03515625,11186.35
769.299499512,11151.025
769.563720703,11155.325
769.827941895,11094.45
770.092163086,11069.775
770.356323242,11060.75
770.620483398,11088.275
770.88458252,11102.525
771.148681641,11078.375
771.412719727,11043.075
771.676757812,11067.625
771.940734863,11029.95
772.204711914,11003.125
772.468688965,10985.725
772.73260498,10967.375
772.996459961,10997.275
773.260314941,9765.525
773.524169922,1245.25
773.787963867,153.625
774.051696777,123.875
774.315551758,121.0
774.579223633,123.75
774.842895508,122.025
775.106567383,122.75
775.370239258,117.85
775.633789062,123.6
775.897399902,125.05
776.160949707,119.375
776.424499512,118.425
776.687988281,123.95
776.951477051,124.425
777.214904785,120.05
777.47833252,119.1
