191.299911499,102.8
191.603515625,106.675
191.907119751,98.275
192.210693359,105.4
192.514251709,98.35
192.817810059,102.8
193.121368408,103.65
193.42489624,106.5
193.728408813,97.8
194.031936646,102.55
194.33543396,96.75
194.638916016,111.575
194.94241333,97.35
195.245880127,98.175
195.549331665,97.025
195.852767944,101.85
196.156204224,183.45
196.459625244,182.7
196.763015747,183.2
197.066436768,191.675
197.369812012,183.725
197.673187256,185.675
197.9765625,177.725
198.279922485,181.35
198.583251953,175.65
198.886581421,185.2
199.18989563,188.975
199.493209839,187.075
199.79649353,177.9
200.09979248,188.9
200.403076172,181.0
200.706314087,183.9
201.009567261,183.8
201.312820435,183.775
201.616027832,176.85
201.919235229,172.375
202.222457886,175.75
202.525634766,179.2
202.828826904,173.625
203.132003784,173.325
203.435150146,173.0
203.738296509,173.175
204.041412354,172.925
204.344558716,178.875
204.647659302,180.1
204.950759888,181.325
205.253845215,177.075
205.556930542,176.475
205.859985352,173.675
206.163024902,175.725
206.466079712,180.25
206.769104004,185.275
207.072113037,179.175
207.375137329,180.7
207.678131104,179.95
207.981109619,181.525
208.284088135,179.9
208.587036133,179.575
208.889984131,183.925
209.19291687,184.15
209.495849609,186.0
209.798751831,184.025
210.101654053,185.15
210.404556274,185.95
210.707427979,183.8
211.010269165,191.975
211.31312561,192.225
211.615982056,187.2
211.918807983,190.2
212.221618652,190.425
212.524429321,186.1
212.827224731,195.85
213.130004883,192.825
213.432769775,194.9
213.735534668,193.15
214.038269043,195.55
214.341003418,196.725
214.643737793,201.65
214.946456909,199.75
215.249145508,203.025
215.551834106,202.4
215.854507446,208.55
216.157165527,207.125
216.45980835,207.55
216.762451172,215.05
217.065078735,210.85
217.36769104,214.225
217.670303345,215.975
217.972885132,218.175
218.275466919,223.45
218.578048706,216.525
218.880599976,233.5
219.183120728,238.0
219.485656738,247.0
219.788192749,263.25
220.090682983,292.15
220.393188477,323.65
220.695663452,363.325
220.998138428,407.725
221.300582886,468.95
221.603042603,527.85
221.905487061,601.75
222.207901001,689.4
222.510299683,788.2
222.812728882,878.45
223.115097046,992.95
223.41746521,1115.9
223.719848633,1223.675
224.022171021,1337.025
224.324508667,1478.925
224.626846313,1627.375
224.929168701,1746.525
225.231460571,1903.8
225.533737183,2034.275
225.836013794,2149.05
226.138290405,2278.275
226.440536499,2413.85
226.742767334,2520.4
227.044998169,2613.95
227.347213745,2757.375
227.649429321,2847.275
227.951629639,2940.3
228.253799438,3009.225
228.555953979,3082.025
228.858123779,3179.4
229.160263062,3249.45
229.462371826,3290.4
229.764511108,3342.65
230.066619873,3406.55
230.36869812,3454.375
230.670776367,3491.325
230.972854614,3548.275
231.274902344,3624.1
231.576950073,3672.05
231.878967285,3705.025
232.180999756,3755.9
232.48298645,3789.975
232.784988403,3834.225
233.086975098,3885.325
233.388946533,3901.25
233.69090271,3942.975
233.992858887,3966.125
234.294769287,3962.275
234.596694946,3963.65
234.898605347,3985.7
235.200500488,3978.65
235.502380371,3971.0
235.804244995,3940.975
236.106109619,3893.025
236.407958984,3884.5
236.709777832,3848.6
237.011581421,3792.275
237.313400269,3733.175
237.615203857,3662.325
237.916976929,3632.725
238.21875,3574.675
238.520507812,3513.55
238.822250366,3451.65
239.12399292,3365.625
239.425704956,3318.9
239.727401733,3194.475
240.02911377,3148.575
240.330780029,3053.15
240.632446289,3001.45
240.93409729,2890.125
241.23576355,2824.175
241.537384033,2746.925
241.839004517,2669.825
242.140594482,2585.05
242.442199707,2515.225
242.743774414,2445.175
243.045333862,2369.05
243.346923828,2283.175
243.648452759,2212.25
243.949966431,2119.725
244.251495361,2057.225
244.552993774,1982.55
244.854492188,1890.7
245.155975342,1820.475
245.457443237,1756.625
245.758880615,1681.4
246.060333252,1605.85
246.36177063,1534.475
246.66317749,1469.2
246.964569092,1395.35
247.265945435,1339.275
247.567337036,1278.1
247.86869812,1241.675
248.170059204,1191.075
248.471389771,1138.05
248.772705078,1097.175
249.074035645,1061.9
249.375335693,1022.05
249.676620483,1000.2
249.977890015,953.65
250.279159546,929.725
250.58039856,897.875
250.881637573,872.35
251.182876587,854.0
251.484069824,827.425
251.785263062,804.9
252.086456299,794.675
252.387619019,780.45
252.688781738,755.475
252.989929199,745.15
253.291061401,737.25
253.592178345,729.15
253.893280029,714.65
254.194366455,706.75
254.49546814,691.025
254.796524048,675.8
255.097579956,679.3
255.398620605,660.0
255.699645996,661.475
256.000640869,637.15
256.30166626,643.375
256.602661133,642.6
256.903656006,632.575
257.204589844,623.775
257.505523682,624.35
257.80645752,629.225
258.107391357,623.35
258.408294678,612.9
258.709228516,616.075
259.010070801,609.225
259.310943604,615.425
259.611846924,617.125
259.912658691,614.45
260.213500977,612.425
260.514343262,613.35
260.815124512,616.25
261.115936279,624.025
261.416717529,633.5
261.717468262,632.3
262.018218994,638.675
262.318969727,656.325
262.619689941,674.15
262.920410156,682.725
263.221130371,695.525
263.521789551,718.275
263.822479248,734.75
264.123138428,766.2
264.42376709,780.9
264.72442627,800.575
265.025054932,818.85
265.325622559,855.95
265.626251221,881.125
265.926818848,912.175
266.227386475,910.65
266.527954102,951.325
266.828460693,984.4
267.12902832,994.675
267.429534912,1018.5
267.730010986,1053.35
268.030517578,1081.8
268.330993652,1110.7
268.631439209,1150.0
268.931915283,1183.875
269.232299805,1228.1
269.532745361,1275.8
269.8331604,1306.0
270.133544922,1338.625
270.433929443,1399.725
270.734313965,1441.275
271.034637451,1493.125
271.334991455,1541.075
271.635314941,1616.35
271.935638428,1685.95
272.235931396,1755.6
272.536254883,1813.975
272.836486816,1908.7
273.136749268,1990.85
273.437011719,2106.475
273.737213135,2205.125
274.037445068,2300.125
274.337677002,2418.0
274.6378479,2527.375
274.938049316,2668.35
275.238220215,2772.7
275.538360596,2922.475
275.838500977,3038.25
276.138641357,3201.1
276.438751221,3340.225
276.738830566,3464.875
277.03894043,3577.275
277.338989258,3743.275
277.639038086,3893.05
277.939056396,4022.95
278.239105225,4147.925
278.539093018,4307.925
278.839141846,4431.025
279.139129639,4579.325
279.439086914,4738.1
279.739044189,4862.35
280.039001465,5028.7
280.338928223,5158.075
280.63885498,5263.825
280.938781738,5419.575
281.238647461,5558.7
281.538513184,5674.475
281.838409424,5786.5
282.138244629,5899.05
282.438079834,6003.15
282.737945557,6105.75
283.037719727,6231.5
283.337524414,6314.125
283.637298584,6408.325
283.937072754,6523.25
284.236816406,6600.525
284.536560059,6650.075
284.836303711,6755.8
285.136016846,6880.025
285.43572998,6959.575
285.735412598,7003.2
286.035064697,7073.825
286.334747314,7172.425
286.634368896,7243.575
286.933990479,7268.025
287.233642578,7259.725
287.533203125,7297.375
287.832824707,7300.075
288.132385254,7253.75
288.431945801,7182.925
288.731506348,7083.95
289.031036377,6970.125
289.330566406,6913.35
289.630065918,6921.3
289.92956543,6939.725
290.229034424,7058.825
290.528503418,7219.9
290.827941895,7428.95
291.127380371,7624.9
291.42678833,7740.85
291.726226807,7921.7
292.025604248,7964.5
292.324981689,8008.95
292.624359131,8078.8
292.923736572,8102.3
293.223052979,8137.625
293.522369385,8164.8
293.821685791,8143.7
294.12097168,8155.0
294.420257568,8136.5
294.719543457,8124.825
295.018768311,8120.0
295.318023682,8043.775
295.617248535,8012.525
295.916442871,7956.025
296.215667725,7895.15
296.514862061,7770.15
296.813995361,7586.275
297.11315918,7400.05
297.412322998,7251.525
297.711425781,7218.675
298.010559082,7423.55
298.309631348,7637.65
298.608734131,7849.6
298.907806396,8046.65
299.206848145,8200.7
299.505889893,8261.15
299.804901123,8399.675
300.103912354,8506.5
300.402954102,8588.85
300.701904297,8647.425
301.00088501,8736.95
301.299835205,8779.225
301.5987854,8822.5
301.897735596,8919.175
302.196624756,8968.3
302.495513916,9047.825
302.794403076,9091.825
303.093292236,9150.775
303.392120361,9244.95
303.690979004,9281.2
303.989837646,9338.875
304.288604736,9424.85
304.587402344,9403.5
304.886199951,9468.275
305.184967041,9512.375
305.483734131,9563.3
305.782501221,9596.05
306.081176758,9626.2
306.37991333,9644.375
306.678619385,9681.6
306.977294922,9721.2
307.275970459,9707.25
307.574645996,9750.85
307.873260498,9693.675
308.171875,9709.875
308.470489502,9702.225
308.769104004,9635.525
309.067687988,9632.275
309.366241455,9646.45
309.664794922,9588.575
309.963348389,9605.925
310.261871338,9599.825
310.560394287,9607.0
310.858856201,9642.1
311.157348633,9689.1
311.455810547,9687.35
311.754272461,9728.625
312.052703857,9790.15
312.351135254,9817.775
312.649536133,9828.925
312.947937012,9813.175
313.246307373,9827.55
313.544647217,9823.9
313.843017578,9775.675
314.141387939,9748.85
314.439697266,9809.775
314.738006592,9712.075
315.036315918,9642.575
315.334564209,9548.45
315.6328125,9508.65
315.931091309,9416.725
316.229309082,9302.9
316.527526855,9153.4
316.825744629,9129.475
317.123901367,9021.475
317.422088623,8981.275
317.720245361,8963.575
318.0184021,8964.1
318.316497803,9027.625
318.614654541,9070.15
318.912750244,9146.425
319.21081543,9168.3
319.50894165,9216.875
319.806945801,9215.425
320.104980469,9181.625
320.403045654,9195.05
320.701049805,9172.55
320.999023438,9140.925
321.297027588,9097.2
321.595001221,9075.775
321.892913818,9037.175
322.190887451,8950.875
322.488830566,8913.4
322.786712646,8868.8
323.084625244,8743.2
323.382507324,8756.6
323.680358887,8650.525
323.978210449,8571.575
324.276062012,8516.05
324.573852539,8488.575
324.871643066,8395.25
325.169464111,8329.775
325.467224121,8262.475
325.764984131,8195.425
326.062744141,8138.925
326.360473633,8042.45
326.658203125,7996.625
326.955871582,7887.175
327.253570557,7845.825
327.551239014,7760.65
327.848907471,7711.65
328.146514893,7617.975
328.444152832,7557.8
328.741790771,7509.975
329.039367676,7458.025
329.336914062,7404.225
329.634521484,7300.575
329.932067871,7255.45
330.229553223,7147.125
330.527160645,7118.425
330.824615479,7060.2
331.12210083,6993.35
331.419586182,6861.325
331.717041016,6805.025
332.014465332,6729.35
332.311920166,6675.325
332.609313965,6613.25
332.906707764,6593.275
333.204101562,6594.95
333.501495361,6606.95
333.798828125,6653.275
334.096160889,6693.625
334.39352417,6759.075
334.690795898,6810.6
334.988098145,6863.45
335.285400391,6905.625
335.582641602,6932.9
335.879882812,6983.725
336.177124023,6982.8
336.474334717,7053.475
336.77154541,7049.2
337.068725586,7073.9
337.365905762,7076.7
337.66305542,7085.825
337.960205078,7120.9
338.257324219,7111.675
338.554443359,7141.6
338.8515625,7165.65
339.148590088,7161.625
339.445648193,7158.925
339.742736816,7109.275
340.039764404,7113.15
340.336761475,7065.6
340.63381958,7006.525
340.930755615,6969.625
341.227722168,6895.425
341.524688721,6790.425
341.821624756,6737.9
342.118560791,6780.5
342.415496826,6891.825
342.712402344,7016.025
343.009246826,7164.575
343.306121826,7282.925
343.602966309,7334.95
343.899810791,7445.225
344.196624756,7518.775
344.493438721,7556.2
344.79019165,7596.825
345.086975098,7649.925
345.383758545,7697.85
345.680480957,7665.8
345.977203369,7682.075
346.273956299,7738.825
346.570617676,7727.075
346.86730957,7724.375
347.163970947,7724.5
347.460601807,7720.125
347.757232666,7741.825
348.053894043,7740.7
348.350463867,7649.075
348.647064209,7624.575
348.943634033,7592.4
349.24017334,7610.675
349.536712646,7538.325
349.833251953,7546.9
350.129760742,7519.525
350.426208496,7507.05
350.722747803,7465.5
351.019195557,7445.1
351.315612793,7396.4
351.612060547,7353.7
351.908508301,7286.3
352.204864502,7201.125
352.501281738,7152.1
352.797637939,7083.625
353.093963623,6982.675
353.390319824,6907.85
353.686645508,6839.925
353.982940674,6732.3
354.27923584,6679.0
354.575531006,6617.15
354.871765137,6597.85
355.167999268,6555.0
355.464233398,6543.25
355.760437012,6559.3
356.056640625,6544.4
356.352813721,6551.55
356.648956299,6545.15
356.945129395,6543.475
357.241271973,6529.0
357.537384033,6529.025
357.833496094,6456.45
358.129577637,6440.6
358.425628662,6422.35
358.721679688,6368.475
359.017730713,6341.95
359.313720703,6257.525
359.609710693,6219.1
359.905761719,6146.55
360.201721191,6100.5
360.497650146,6023.425
360.793609619,5999.05
361.089538574,5926.575
361.385437012,5819.85
361.681365967,5774.65
361.977233887,5676.45
362.273071289,5640.05
362.568908691,5484.4
362.864746094,5366.2
363.160552979,5245.5
363.456359863,5049.875
363.752166748,4888.3
364.047912598,4809.525
364.343658447,4758.575
364.639434814,4776.8
364.935119629,4796.875
365.230834961,4865.375
365.526550293,4866.55
365.822174072,4852.875
366.117858887,4879.175
366.413482666,4894.05
366.709075928,4914.125
367.004730225,4794.475
367.300292969,4780.85
367.595855713,4828.675
367.891448975,4696.925
368.186981201,4587.6
368.482513428,4530.725
368.778015137,4510.85
369.073547363,4462.55
369.36895752,4478.85
369.664428711,4362.0
369.95993042,4260.275
370.255310059,4183.8
370.550720215,4167.075
370.846160889,4097.0
371.14151001,4057.15
371.436859131,4016.55
371.73223877,3997.7
372.027557373,3972.05
372.322875977,3880.65
372.618164062,3859.7
372.913482666,3801.55
373.208709717,3771.55
373.503967285,3707.85
373.799194336,3670.4
374.094421387,3649.15
374.389648438,3618.4
374.684844971,3600.1
374.979980469,3649.55
375.275146484,3630.625
375.570281982,3662.4
375.865386963,3646.825
376.160522461,3588.75
376.455596924,3592.875
376.750640869,3662.5
377.045715332,3667.925
377.340759277,3669.425
377.635772705,3732.45
377.93081665,3751.325
378.225769043,3797.3
378.520751953,3842.35
378.815734863,3782.35
379.110656738,3949.35
379.405548096,4066.6
379.700500488,3922.05
379.995391846,3718.0
380.290252686,3780.45
380.585083008,3840.9
380.879974365,3873.45
381.17477417,3790.25
381.469543457,3735.35
381.764404297,3710.975
382.059143066,3748.5
382.353912354,3805.775
382.648651123,3862.325
382.943389893,3845.025
383.238067627,3685.375
383.532775879,3698.575
383.827484131,3648.75
384.12210083,3630.65
384.416778564,3577.0
384.711425781,3485.025
385.006011963,3508.65
385.300628662,3488.575
385.595184326,3547.55
385.88973999,3621.25
386.184295654,3709.7
386.478820801,3772.35
386.77331543,3851.6
387.067840576,3919.95
387.362335205,3991.3
387.656768799,4058.55
387.951202393,4076.55
388.245635986,4131.225
388.540039062,4186.05
388.834472656,4231.775
389.128875732,4138.7
389.423187256,3949.125
389.717559814,3914.5
390.011871338,3998.85
390.306182861,4004.025
390.600463867,4019.575
390.894775391,4083.975
391.189025879,4108.125
391.48324585,4095.6
391.777526855,4122.025
392.071685791,4310.825
392.365875244,4375.75
392.660064697,4433.725
392.95425415,4703.1
393.248382568,4688.6
393.542510986,4301.8
393.836608887,4151.3
394.130706787,4152.7
394.424804688,4100.2
394.71887207,4195.625
395.012878418,4192.6
395.306915283,4083.725
395.600921631,4034.075
395.894927979,4021.225
396.188903809,4040.025
396.482879639,4068.45
396.776794434,4234.1
397.070739746,4209.575
397.364654541,4226.775
397.658538818,4540.9
397.952423096,4582.125
398.246307373,4531.2
398.540100098,4977.65
398.833953857,4874.7
399.127746582,4459.65
399.421508789,4467.775
399.715301514,4420.8
400.009063721,4345.225
400.30279541,4222.05
400.596496582,4170.05
400.890258789,4294.0
401.183929443,4380.225
401.47756958,4304.1
401.771240234,4107.425
402.064880371,4113.05
402.35848999,4158.825
402.652130127,4058.35
402.945678711,4131.275
403.239257812,4088.775
403.532775879,4044.0
403.82635498,4088.475
404.119842529,4024.85
404.413360596,4013.45
404.706848145,4071.775
405.000274658,4021.85
405.293762207,4077.075
405.587188721,4137.05
405.880584717,4007.075
406.17401123,3843.95
406.467407227,3676.575
406.760742188,3689.325
407.054107666,3729.15
407.347442627,3687.675
407.640716553,3671.925
407.934051514,3717.55
408.227325439,3781.825
408.520568848,3983.925
408.813842773,4049.275
409.107086182,3888.775
409.400238037,3851.275
409.693450928,3784.75
409.986633301,3898.65
410.279754639,3833.95
410.572875977,3590.725
410.86605835,3514.6
411.159118652,3538.25
411.452209473,3555.0
411.745330811,3430.375
412.038360596,3390.225
412.331390381,3418.225
412.624420166,3455.475
412.917388916,3387.325
413.210388184,3234.6
413.503387451,3207.4
413.796295166,3122.75
414.089233398,2985.0
414.382141113,2916.4
414.675048828,2905.95
414.967926025,2919.1
415.260803223,2893.025
415.55368042,2912.4
415.846466064,2896.2
416.139282227,2966.325
416.432098389,3074.575
416.724853516,3061.225
417.017608643,3029.225
417.31036377,3049.1
417.603088379,3167.0
417.895782471,3134.925
418.188476562,3107.825
418.481140137,3191.175
418.773803711,3224.375
419.066436768,3210.5
419.359039307,3285.8
419.651641846,3302.975
419.944244385,3280.175
420.236816406,3265.625
420.529327393,3458.15
420.821899414,3521.5
421.114379883,3471.65
421.406860352,3714.05
421.699371338,3936.925
421.991821289,3884.95
422.284240723,3702.5
422.576721191,3573.75
422.869110107,3484.325
423.161468506,3446.175
423.453857422,3477.65
423.74621582,3363.725
424.038543701,3243.025
424.330871582,3215.6
424.623168945,3157.275
424.915435791,3300.775
425.207702637,3272.35
425.499969482,3228.225
425.792205811,3174.325
426.084411621,2940.65
426.376617432,3017.975
426.668762207,3092.825
426.9609375,2994.275
427.253082275,3095.575
427.545196533,3482.025
427.837310791,3219.4
428.129425049,2968.575
428.421447754,3168.8
428.713531494,3167.65
429.005554199,3181.275
429.297576904,3170.725
429.589599609,3597.725
429.881561279,3896.0
430.173522949,3679.25
430.465484619,3636.15
430.757415771,3723.0
431.049316406,3501.45
431.341186523,3280.2
431.633117676,3190.15
431.924957275,2908.8
432.21673584,2817.05
432.508636475,2953.1
432.800415039,2979.45
433.092163086,2871.75
433.383972168,2850.625
433.675689697,3534.85
433.967437744,4024.2
434.259155273,3094.125
434.550872803,2810.5
434.842498779,2870.225
435.134185791,2987.35
435.425842285,3014.1
435.717437744,2923.125
436.009063721,2746.975
436.30065918,2886.725
436.592224121,3227.625
436.883758545,3046.325
437.175323486,2785.65
437.466827393,2760.7
437.758331299,2779.4
438.049804688,2798.45
438.341247559,2876.75
438.63269043,2948.75
438.924163818,2936.1
439.215515137,2900.0
439.50692749,2809.95
439.798309326,2815.075
440.089660645,2822.3
440.380981445,2730.8
440.672332764,2731.85
440.963623047,3003.4
441.254882812,3458.075
441.546173096,3628.775
441.837402344,3381.85
442.128631592,3204.3
442.41986084,3197.625
442.711029053,3061.225
443.002197266,3134.2
443.293365479,3331.9
443.584503174,3448.825
443.875610352,3420.875
444.166717529,3157.275
444.457794189,3223.3
444.748840332,3196.85
445.039916992,3164.25
445.330932617,3253.9
445.621948242,3102.0
445.912963867,2908.9
446.203918457,3147.775
446.494812012,3369.35
446.785827637,3175.7
447.076721191,2984.025
447.367584229,2995.5
447.658447266,2952.425
447.949371338,3001.425
448.24017334,2872.95
448.530975342,2812.875
448.821838379,2982.15
449.112579346,3054.625
449.40335083,2997.2
449.694152832,3020.275
449.984863281,3026.7
450.27557373,2970.225
450.56628418,3009.275
450.856933594,3046.825
451.147583008,2902.075
451.438262939,2788.525
451.728881836,2985.5
452.019470215,3080.95
452.310089111,2881.2
452.600646973,2893.725
452.891174316,2950.65
453.181732178,2783.4
453.472229004,2665.75
453.762695312,2765.65
454.053222656,2789.925
454.343658447,2665.5
454.634063721,2594.7
454.924530029,2786.75
455.214935303,2933.975
455.505279541,2987.575
455.795715332,2849.375
456.086029053,2648.425
456.376312256,2649.975
456.666687012,2688.075
456.956939697,2789.95
457.247192383,2768.175
457.537445068,2850.4
457.827728271,3039.0
458.117919922,2959.025
458.408081055,2887.575
458.698303223,3076.675
458.988433838,3008.125
459.278564453,2828.25
459.568725586,3111.15
459.858825684,3228.625
460.148864746,2903.4
460.438995361,2878.925
460.729034424,2945.25
461.019042969,2936.75
461.309082031,3134.775
461.599060059,3018.075
461.889007568,2571.125
462.179016113,2391.575
462.468933105,2622.45
462.75881958,2738.55
463.048736572,2476.35
463.338592529,2744.975
463.628448486,3108.65
463.918365479,2814.825
464.2081604,2989.95
464.497924805,2955.9
464.787780762,3070.275
465.077514648,3389.625
465.367218018,2995.3
465.657012939,3195.375
465.946685791,3638.275
466.236358643,3221.2
466.526092529,2684.9
466.815734863,2677.825
467.105316162,2616.275
467.394927979,2639.0
467.684570312,2498.65
467.974121094,2595.075
468.263671875,2688.225
468.553222656,2473.95
468.842773438,2377.625
469.132232666,2265.125
469.42175293,2298.575
469.711212158,2262.625
470.000640869,2140.15
470.290100098,2183.825
470.579498291,2239.975
470.868835449,2240.2
471.158294678,2203.5
471.447601318,2187.625
471.736907959,2253.1
472.026275635,2320.05
472.315551758,2303.15
472.604797363,2307.65
472.894104004,2440.575
473.183319092,2549.4
473.47253418,2544.675
473.761779785,2531.7
474.05090332,2463.625
474.340087891,2411.8
474.629241943,2336.625
474.918365479,2519.45
475.207427979,2804.45
475.496551514,2834.1
475.785614014,2556.825
476.074645996,2354.15
476.363708496,2450.125
476.652679443,2595.95
476.941650391,2414.15
477.230682373,2256.1
477.519622803,2261.775
477.808502197,2423.65
478.097412109,2695.35
478.386352539,2646.8
478.675201416,2369.525
478.964050293,2263.55
479.25289917,2453.625
479.541717529,2522.3
479.830474854,2361.425
480.11932373,2721.075
480.408050537,2903.775
480.696777344,2520.025
480.985534668,2375.175
481.274200439,2462.275
481.562866211,2731.55
481.851593018,2764.425
482.140197754,2700.775
482.428833008,2541.7
482.717468262,2327.225
483.006011963,2363.475
483.294586182,2485.9
483.5831604,2534.375
483.871673584,2383.225
484.16015625,2531.1
484.448699951,2785.75
484.7371521,2846.375
485.02557373,2842.225
485.314025879,2553.45
485.602416992,3957.025
485.890777588,14014.025
486.179199219,12551.875
486.467559814,3376.75
486.755859375,2447.025
487.044219971,2869.6
487.332519531,3065.2
487.620758057,2625.8
487.908966064,2367.425
488.197265625,2141.6
488.485473633,2050.6
488.773651123,2158.25
489.061859131,2160.1
489.350006104,2120.5
489.638122559,2056.2
489.926300049,2083.2
490.214355469,2018.5
490.502441406,1962.1
490.790527344,1897.775
491.078552246,2110.45
491.366546631,2104.525
491.654602051,1861.45
491.942565918,1938.45
492.230499268,1992.65
492.518493652,1942.625
492.806396484,1993.225
493.094268799,1906.55
493.382202148,1928.725
493.670074463,2057.8
493.957885742,1908.425
494.245727539,1899.225
494.533508301,2076.5
494.821289062,1961.9
495.109100342,1782.875
495.396850586,1753.95
495.684539795,1690.2
495.972290039,1929.55
496.25994873,2299.05
496.547607422,2311.25
496.835296631,2129.9
497.122894287,1753.675
497.410522461,1683.15
497.6980896,1684.475
497.985687256,1649.125
498.273223877,1762.5
498.560760498,1850.575
498.848266602,1870.575
499.135772705,1835.075
499.423217773,1883.4
499.710693359,2007.8
499.998138428,1936.525
500.285522461,1750.025
500.572937012,1680.25
500.860290527,1732.55
501.147644043,1843.825
501.434997559,2104.35
501.722290039,1958.8
502.00958252,1688.6
502.296875,1982.125
502.584106445,1970.3
502.871337891,1771.35
503.158599854,1858.8
503.445770264,1958.875
503.732910156,1929.2
504.020141602,1730.775
504.307220459,1694.5
504.594329834,1743.3
504.881469727,1672.7
505.168518066,1748.5
505.455535889,1830.275
505.742614746,1700.875
506.029632568,1607.825
506.316589355,1825.35
506.603637695,1921.325
506.890563965,1714.55
507.177459717,1521.075
507.464385986,1432.35
507.751312256,1674.35
508.038146973,1783.2
508.325012207,1618.425
508.611877441,1686.075
508.898681641,1703.55
509.185424805,1516.85
509.472259521,1477.675
509.759002686,1570.675
510.045715332,1608.55
510.332458496,1545.275
510.619140625,1614.225
510.905761719,1525.6
511.192504883,1507.875
511.479095459,1559.75
511.765686035,1500.325
512.052307129,1410.375
512.338928223,1354.975
512.625427246,1405.925
512.91204834,1475.9
513.198486328,1461.875
513.484985352,1421.975
513.77142334,1343.475
514.057922363,1387.1
514.344299316,1393.875
514.63079834,1339.625
514.917175293,1325.475
515.203552246,1227.7
515.489868164,1195.025
515.776245117,1328.25
516.0625,1386.125
516.348815918,1288.85
516.635070801,1314.35
516.921325684,1381.65
517.207580566,1309.9
517.493774414,1208.2
517.779968262,1216.475
518.066101074,1267.025
518.352294922,1200.6
518.638366699,1211.325
518.924499512,1297.2
519.210632324,1381.425
519.496643066,1343.1
519.782714844,1234.05
520.068786621,1203.925
520.354736328,1149.825
520.640686035,1108.45
520.926757812,1158.85
521.212646484,1236.175
521.498535156,1256.575
521.784484863,1196.1
522.0703125,1118.425
522.356262207,1135.825
522.642089844,1213.625
522.927856445,1214.05
523.213684082,1212.075
523.499511719,1196.25
523.78527832,1240.85
524.070983887,1305.975
524.356750488,1274.025
524.64239502,1235.45
524.928039551,1225.25
525.213806152,1247.125
525.499389648,1219.425
525.784973145,1258.525
526.070617676,1313.7
526.356140137,1273.0
526.641723633,1288.475
526.927307129,1342.3
527.212768555,1355.475
527.498291016,1335.8
527.783752441,1324.675
528.069213867,1306.7
528.354675293,1341.3
528.640014648,1505.7
528.925476074,1599.425
529.21081543,1510.975
529.496154785,1486.6
529.781555176,1438.825
530.066833496,1470.5
530.352050781,1483.7
530.637390137,1477.275
530.922607422,1468.1
531.207824707,1467.725
531.493041992,1443.3
531.778198242,1521.525
532.063354492,1510.825
532.348571777,1446.475
532.633666992,1460.625
532.918762207,1550.15
533.203857422,1651.45
533.488891602,1682.675
533.773925781,1623.775
534.059020996,1592.675
534.343933105,1622.225
534.628967285,1605.4
534.91394043,1599.625
535.198852539,1622.225
535.483703613,1595.775
535.768676758,1532.2
536.053527832,1535.9
536.338317871,1484.275
536.62322998,1415.3
536.90802002,1387.65
537.192810059,1412.5
537.477539062,1503.725
537.762329102,1543.075
538.047058105,1593.525
538.331726074,1629.2
538.616455078,1615.325
538.901123047,1590.05
539.18572998,1640.325
539.470397949,1639.325
539.755004883,1636.45
540.039550781,1591.075
540.32409668,1541.175
540.608703613,1591.5
540.893188477,1704.175
541.17767334,1714.5
541.462158203,1716.75
541.746643066,1659.225
542.031066895,1702.375
542.315429688,1749.725
542.59979248,1747.05
542.884216309,1722.4
543.168579102,1725.25
543.452941895,1718.925
543.737243652,1799.475
544.021484375,1847.225
544.305725098,1823.025
544.590026855,1809.325
544.874267578,1816.55
545.158447266,1902.725
545.442626953,1806.275
545.726806641,1677.4
546.010925293,1722.7
546.29510498,1761.45
546.579162598,1749.25
546.863220215,1785.35
547.147277832,1869.9
547.431335449,1954.275
547.715332031,2032.0
547.999328613,2146.65
548.283325195,2163.025
548.567260742,1982.775
548.851135254,1962.325
549.135070801,1938.275
549.419006348,1826.725
549.702819824,1928.575
549.986755371,2021.625
550.270507812,1973.225
550.554321289,2030.15
550.83807373,2033.6
551.121826172,1984.675
551.405517578,2012.35
551.689331055,2136.85
551.973022461,2401.15
552.256652832,2466.875
552.540344238,2350.625
552.823974609,2327.4
553.107543945,2311.95
553.391174316,2382.2
553.674743652,2442.025
553.958251953,2450.2
554.241821289,2457.95
554.525268555,2378.0
554.808776855,2378.375
555.092285156,2619.825
555.375671387,2687.25
555.659057617,2690.0
555.942504883,2729.45
556.225891113,2762.1
556.509216309,2729.45
556.792541504,2616.875
557.075866699,2697.825
557.359130859,2745.0
557.64239502,2730.7
557.92565918,2820.75
558.208862305,2788.775
558.49206543,2716.375
558.77532959,2736.975
559.058410645,2806.4
559.341552734,2782.525
559.624694824,2854.225
559.907775879,2933.825
560.190856934,3060.45
560.473937988,3056.3
560.756896973,3096.425
561.039978027,3141.375
561.322937012,3085.925
561.605895996,3073.6
561.88885498,3044.975
562.171813965,3043.025
562.454650879,3032.6
562.737548828,3077.75
563.020446777,3146.825
563.303283691,3168.975
563.58605957,3213.9
563.868896484,3241.525
564.151672363,3285.375
564.434387207,3321.625
564.717163086,3286.875
564.99987793,3331.775
565.282531738,3398.825
565.565185547,3332.2
565.847839355,3344.95
566.130432129,3480.675
566.413085938,3439.525
566.695678711,3468.125
566.978149414,3573.5
567.260681152,3756.775
567.543273926,3847.575
567.825744629,3709.975
568.108154297,3774.9
568.390686035,3919.95
568.673095703,4037.6
568.955505371,4097.125
569.237854004,4143.9
569.520202637,4430.375
569.802490234,4661.65
570.084838867,4642.85
570.367126465,4446.85
570.649414062,4487.325
570.93170166,4871.0
571.213928223,4964.2
571.496154785,4680.5
571.778381348,4946.025
572.06048584,5233.725
572.342590332,4710.2
572.624755859,4329.625
572.906860352,4416.275
573.188903809,5164.575
573.470947266,5425.05
573.752990723,5154.45
574.03503418,5281.075
574.317016602,5732.125
574.598937988,5468.675
574.88092041,5344.325
575.162841797,5549.625
575.444763184,5134.95
575.726623535,4847.125
576.008483887,4879.325
576.290344238,5337.4
576.572143555,5554.825
576.853881836,5633.125
577.135681152,5524.25
577.417419434,5581.75
577.699157715,6543.225
577.980895996,6767.625
578.262573242,6020.325
578.544128418,5461.0
578.825866699,5390.5
579.107421875,5050.45
579.388977051,5241.875
579.670593262,5703.175
579.952148438,5503.575
580.233642578,5638.3
580.515197754,5772.275
580.796691895,5421.925
581.078125,5608.8
581.359619141,7293.55
581.640991211,7431.225
581.922363281,6376.1
582.203796387,6437.35
582.485107422,6024.4
582.766418457,5600.5
583.047790527,5409.25
583.329040527,5284.8
583.610290527,5130.125
583.891540527,5257.65
584.172790527,5617.525
584.453918457,5645.125
584.735107422,5698.975
585.016235352,6214.375
585.297363281,6164.175
585.578552246,5941.225
585.859619141,5877.675
586.140625,5642.825
586.421630859,5477.275
586.702697754,5506.45
586.983642578,5774.2
587.264648438,5970.95
587.545654297,5874.775
587.826477051,5818.25
588.107421875,5586.7
588.388305664,5639.75
588.669189453,5759.925
588.950012207,5596.3
589.230834961,5465.75
589.511657715,5570.6
589.792358398,5677.375
590.073120117,5692.7
590.353881836,5650.975
590.63458252,5667.1
590.915283203,5640.525
591.195922852,5639.3
591.4765625,5682.75
591.757202148,5725.05
592.037780762,5703.9
592.31829834,5699.15
592.598937988,5948.8
592.879394531,6115.975
593.159912109,6006.725
593.440429688,5943.425
593.720825195,5930.775
594.001281738,5891.85
594.281677246,5792.1
594.562072754,5838.975
594.842407227,5960.025
595.122802734,5985.15
595.403137207,5972.05
595.683410645,5938.175
595.963623047,5919.175
596.243896484,5868.1
596.524169922,5855.125
596.804382324,5876.675
597.084533691,5914.825
597.364746094,5946.075
597.644836426,5976.35
597.924987793,5961.225
598.205078125,5897.65
598.485107422,5921.35
598.765197754,6053.25
599.045227051,6126.275
599.325195312,6006.975
599.605224609,5979.125
599.885192871,6018.65
600.165100098,6064.875
600.445007324,6010.825
600.724914551,6026.6
601.004760742,6035.375
601.284667969,6076.35
601.56451416,6024.875
601.844238281,6032.95
602.124084473,6016.225
602.403808594,6033.95
602.683532715,6062.65
602.963256836,6060.35
603.242919922,6102.525
603.522583008,6141.65
603.802246094,6091.925
604.081848145,6057.05
604.36138916,6063.975
604.641052246,6068.7
604.920532227,6051.325
605.200073242,6093.125
605.479614258,6126.325
605.759094238,6140.575
606.038574219,6124.575
606.317932129,6072.0
606.597412109,6061.3
606.87677002,6066.2
607.15612793,6128.7
607.435546875,6130.925
607.714782715,6137.325
607.99407959,6087.475
608.273376465,6078.575
608.552612305,6114.575
608.831848145,6115.7
609.111083984,6123.875
609.390258789,6095.075
609.669433594,6081.85
609.948608398,6153.475
610.227722168,6133.025
610.506713867,6078.225
610.785888672,6074.875
611.064880371,6071.625
611.34387207,6100.35
611.622924805,6099.975
611.901916504,6081.2
612.180847168,6033.2
612.459777832,6033.075
612.738647461,6048.525
613.01751709,5999.825
613.296447754,5936.3
613.575317383,5927.175
613.854064941,5860.075
614.132873535,5795.875
614.411621094,5719.55
614.690368652,5668.45
614.969177246,5600.375
615.247802734,5515.45
615.526489258,5489.9
615.805175781,5387.35
616.08380127,5251.95
616.362365723,5181.55
616.640991211,5111.225
616.919555664,5054.25
617.198059082,5194.3
617.4765625,5468.125
617.755126953,5648.2
618.033569336,5675.775
618.311950684,5659.15
618.590454102,5649.85
618.868774414,5625.425
619.147155762,5626.175
619.425598145,5620.475
619.703857422,5629.15
619.982177734,5655.05
620.260498047,5619.525
620.538757324,5604.675
620.816955566,5582.625
621.095214844,5537.35
621.373413086,5546.95
621.651550293,5599.65
621.929748535,5630.975
622.207824707,5613.55
622.485900879,5649.75
622.764038086,5631.175
623.042053223,5664.55
623.320007324,5690.4
623.598083496,5707.15
623.876037598,5681.2
624.153991699,5688.825
624.432006836,5721.625
624.709838867,5733.55
624.987731934,5709.05
625.265563965,5713.825
625.543395996,5745.875
625.821228027,5779.725
626.098999023,5780.075
626.376831055,5831.5
626.654541016,5840.425
626.932250977,5880.575
627.209960938,5934.275
627.487670898,5955.625
627.765319824,5984.075
628.04296875,5987.325
628.320495605,5999.9
628.598083496,5983.2
628.875671387,6031.9
629.153259277,6052.85
629.430725098,6133.6
629.708251953,6108.425
629.985656738,6118.35
630.263122559,6155.025
630.540588379,6204.125
630.817932129,6211.8
631.095275879,6258.775
631.372680664,6306.85
631.649963379,6335.625
631.927246094,6412.575
632.204589844,6403.1
632.481811523,6513.525
632.759033203,6600.0
633.036254883,6628.7
633.313415527,6687.875
633.590576172,6754.95
633.867736816,6854.25
634.144836426,6939.75
634.421875,6984.525
634.698913574,7045.325
634.976013184,7102.825
635.252990723,7172.9
635.529968262,7208.55
635.807006836,7305.525
636.08392334,7266.25
636.360839844,7158.575
636.637756348,7062.85
636.914611816,7033.5
637.191467285,6997.2
637.468261719,7110.275
637.745056152,7053.425
638.021789551,7075.9
638.298583984,7091.25
638.575317383,7135.95
638.851989746,7147.875
639.12878418,7166.8
639.405395508,7132.95
639.682006836,7184.3
639.958618164,7197.55
640.235229492,7175.975
640.511779785,7240.325
640.788330078,7179.575
641.064880371,7187.475
641.341308594,7152.475
641.617797852,7162.725
641.894226074,7197.6
642.170654297,7199.95
642.44708252,7222.125
642.723388672,7222.625
642.999755859,7185.65
643.276123047,7194.475
643.552429199,7176.875
643.828674316,7204.525
644.104919434,7173.2
644.381164551,7150.775
644.657348633,7174.725
644.933532715,7128.025
645.209716797,7160.95
645.485839844,7128.55
645.761901855,7122.775
646.038024902,7149.2
646.314086914,7179.425
646.590087891,7151.625
646.866149902,7190.875
647.142150879,7126.75
647.41809082,7120.35
647.694030762,7128.0
647.969970703,7109.725
648.245788574,7124.625
648.521728516,7114.85
648.797546387,7104.475
649.073303223,7129.85
649.349182129,7105.7
649.624938965,7098.0
649.900634766,7107.725
650.176391602,7095.525
650.452087402,7080.25
650.727783203,7089.2
651.003479004,7125.375
651.279052734,7095.525
651.554626465,7091.675
651.83026123,7082.5
652.105773926,7147.05
652.381286621,7067.175
652.656860352,7056.35
652.932312012,7092.075
653.207763672,7084.325
653.483215332,7129.375
653.758605957,7114.625
654.033935547,7122.925
654.309326172,7127.025
654.584716797,7144.35
654.859985352,7124.95
655.135253906,7165.675
655.410583496,7186.45
655.685791016,8272.325
655.9609375,12860.275
656.236206055,12548.075
656.511291504,8361.95
656.786437988,7370.725
657.061645508,7226.9
657.336669922,7206.275
657.611694336,7276.975
657.886779785,7304.325
658.161804199,7311.525
658.436828613,7259.8
658.711791992,7281.55
658.986755371,7316.625
659.261657715,7304.0
659.536621094,7322.825
659.811401367,7320.55
660.086303711,7353.4
660.36114502,7357.4
660.635864258,7345.925
660.910644531,7400.175
661.185424805,7377.55
661.460205078,7389.05
661.734863281,7414.825
662.009521484,7392.3
662.284179688,7401.875
662.558776855,7455.175
662.833435059,7518.6
663.108032227,7500.375
663.382568359,7496.275
663.657043457,7551.75
663.93157959,7559.475
664.206054688,7548.55
664.48046875,7581.525
664.755004883,7611.925
665.02935791,7626.8
665.303710938,7654.75
665.578125,7688.825
665.852416992,7694.175
666.126708984,7675.6
666.401062012,7693.325
666.675292969,7743.375
666.949462891,7723.275
667.223754883,7760.1
667.497924805,7801.825
667.772094727,7813.75
668.046264648,7784.5
668.3203125,7864.325
668.594421387,7857.6
668.868469238,7874.35
669.14251709,7885.3
669.416503906,7921.4
669.690551758,7918.25
669.964477539,7910.4
670.23840332,7930.375
670.512329102,7954.075
670.786254883,7929.5
671.060058594,8002.75
671.333984375,8016.675
671.607788086,8040.65
671.881530762,8043.825
672.155334473,8072.85
672.429077148,8105.5
672.702758789,8115.7
672.97644043,8080.825
673.25012207,8083.775
673.523742676,8109.4
673.797302246,8108.875
674.070922852,8182.6
674.344482422,8204.7
674.618041992,8189.95
674.891601562,8181.15
675.165100098,8201.075
675.438476562,8177.45
675.711975098,8256.85
675.985412598,8233.9
676.258789062,8208.225
676.532165527,8241.675
676.805480957,8251.3
677.078796387,8291.925
677.352111816,8311.5
677.625366211,8297.25
677.898620605,8273.075
678.171875,8341.975
678.445007324,8314.05
678.718200684,8366.375
678.991394043,8389.575
679.264404297,8359.275
679.537536621,8399.1
679.81060791,8402.55
680.083679199,8429.325
680.356689453,8429.7
680.629699707,8455.225
680.902648926,8432.3
681.175598145,8522.525
681.448547363,8528.45
681.721435547,8491.0
681.99420166,8502.775
682.267150879,8498.075
682.539916992,8535.825
682.812744141,8535.2
683.085510254,8518.9
683.358215332,8550.925
683.63092041,8538.3
683.903625488,8520.7
684.176330566,8536.425
684.448913574,8507.7
684.721557617,8517.0
684.99420166,8600.9
685.266662598,8609.575
685.539245605,8583.325
685.811767578,8669.075
686.084289551,8692.4
686.356689453,8703.55
686.629150391,8742.825
686.901550293,8761.225
687.17401123,8737.725
687.446350098,8782.475
687.718688965,8801.65
687.990966797,8836.0
688.263305664,8862.375
688.535522461,8826.275
688.807739258,8805.425
689.079956055,8885.075
689.352172852,8916.75
689.624328613,8869.95
689.896484375,8929.4
690.168518066,8941.5
690.440612793,8965.7
690.71270752,8998.4
690.984741211,8976.275
691.256713867,9024.825
691.528747559,9009.025
691.800720215,9046.775
692.072631836,9059.225
692.344543457,9089.775
692.616394043,9085.3
692.888244629,9131.425
693.160095215,9156.075
693.431945801,9199.4
693.703674316,9139.325
693.975463867,9149.425
694.247131348,9183.75
694.518859863,9174.475
694.790588379,9262.175
695.062255859,9229.05
695.33380127,9227.975
695.60546875,9238.675
695.87701416,9259.425
696.148498535,9306.4
696.42010498,9345.3
696.691589355,9360.0
696.96307373,9373.675
697.234558105,9424.075
697.50592041,9409.325
697.777282715,9444.05
698.048706055,9435.35
698.320068359,9489.9
698.591308594,9460.625
698.862670898,9440.85
699.133972168,9506.95
699.405151367,9478.7
699.676391602,9550.8
699.947570801,9495.95
700.21875,9521.9
700.489868164,9519.7
700.761047363,9524.85
701.032104492,9616.5
701.303100586,9548.95
701.57421875,9642.05
701.845214844,9622.025
702.116149902,9635.125
702.387207031,9640.425
702.65814209,9654.925
702.928955078,9706.625
703.199951172,9669.025
703.47076416,9637.975
703.741577148,9656.625
704.012451172,9705.425
704.28314209,9729.625
704.553955078,9683.975
704.824707031,9742.0
705.095397949,9777.55
705.366027832,9763.625
705.63671875,9800.4
705.907348633,9749.7
706.17791748,9778.55
706.448486328,9804.15
706.719055176,9856.25
706.989562988,9902.25
707.260131836,9891.65
707.530517578,9924.7
707.800964355,9914.025
708.071411133,9861.925
708.341796875,9910.675
708.612182617,9881.6
708.882446289,9889.9
709.152893066,9917.3
709.423156738,9941.35
709.693359375,9883.95
709.963623047,9916.5
710.233825684,9915.65
710.503967285,9910.3
710.774169922,9920.175
711.044311523,9914.975
711.31439209,9897.2
711.584533691,9942.9
711.854553223,9965.25
712.124572754,9976.725
712.39465332,9936.9
712.664611816,9996.2
712.934509277,10043.15
713.204467773,9984.8
713.474365234,10026.15
713.74420166,10001.075
714.014099121,10015.075
714.283874512,10003.225
714.553710938,10066.375
714.823486328,10051.025
715.093200684,10060.425
715.362915039,10048.35
715.632629395,10026.0
715.902282715,10001.45
716.171875,10004.3
716.441589355,10011.55
716.711181641,10008.875
716.980712891,10023.175
717.250244141,10030.1
717.519775391,10053.375
717.78918457,10060.625
718.058654785,10121.375
718.328125,10148.85
718.597473145,10081.15
718.866882324,10108.475
719.136230469,10104.1
719.405578613,10122.2
719.674865723,10158.125
719.944152832,10134.725
720.213439941,10109.975
720.48260498,10145.25
720.75177002,10161.6
721.020996094,10169.3
721.290100098,10159.925
721.559204102,10152.125
721.828308105,10198.225
722.097351074,10172.8
722.366455078,10124.3
722.635437012,10113.325
722.904418945,10077.925
723.173400879,10149.95
723.442321777,10186.3
723.711181641,10148.75
723.980102539,10183.675
724.248962402,10173.925
724.51776123,10163.975
724.786560059,10177.2
725.055358887,10183.05
725.324035645,10138.3
725.592834473,10157.95
725.86151123,10142.575
726.130187988,10155.275
726.398803711,10131.925
726.667419434,10154.475
726.935974121,10138.275
727.204528809,10108.825
727.473083496,10133.275
727.741638184,10102.325
728.010070801,10080.475
728.278564453,10084.975
728.546936035,10062.65
728.815368652,9997.575
729.08380127,9931.65
729.352111816,9887.025
729.620361328,9794.875
729.88873291,9869.825
730.156982422,9957.675
730.425231934,9936.775
730.693481445,9912.375
730.961669922,10016.125
731.229797363,10055.925
731.49798584,10063.2
731.766113281,10156.525
732.034118652,10221.075
732.302246094,10229.175
732.570251465,10283.05
732.838256836,10321.7
733.106262207,10403.2
733.374145508,10448.7
733.642089844,10476.7
733.909973145,10541.4
734.177856445,10647.5
734.445678711,10708.525
734.713562012,10856.25
734.981323242,10805.075
735.249084473,10902.225
735.516845703,11087.4
735.784545898,11146.625
736.052185059,11199.45
736.319885254,11340.55
736.587524414,11367.7
736.855102539,11439.0
737.122619629,11577.85
737.390197754,11592.075
737.657714844,11720.85
737.925170898,11765.05
738.192749023,11954.175
738.460144043,12020.975
738.727539062,12072.975
738.994995117,12161.775
739.262329102,12240.05
739.529663086,12398.35
739.79699707,12406.8
740.06427002,12514.15
740.331481934,12577.825
740.598754883,12656.7
740.865905762,12665.825
741.133056641,12827.2
741.40032959,12845.05
741.667358398,12924.4
741.934448242,12959.975
742.201599121,13005.2
742.468566895,13142.925
742.735534668,13189.2
743.002563477,13186.1
743.26953125,13207.725
743.536437988,13255.55
743.803405762,13389.3
744.0703125,13340.45
744.337097168,13479.875
744.604003906,13395.625
744.870727539,13477.9
745.137512207,13555.025
745.40423584,13542.175
745.670959473,13537.525
745.93762207,13557.35
746.204284668,13593.075
746.470947266,13615.05
746.737548828,13592.875
747.004089355,13616.275
747.270751953,13612.25
747.53717041,13676.325
747.803710938,13608.975
748.070251465,13592.4
748.336608887,13581.525
748.603027344,13547.875
748.869445801,13547.35
749.135803223,13557.15
749.402099609,13552.05
749.668457031,13562.55
749.934753418,13534.025
750.20098877,13484.725
750.467224121,13554.175
750.733459473,13511.85
750.999572754,13501.9
751.26574707,13382.95
751.531860352,13449.125
751.797912598,13401.875
752.064025879,13348.25
752.330078125,13348.675
752.596069336,13344.175
752.862060547,13272.85
753.127990723,13312.2
753.393920898,13270.6
753.659912109,13208.7
753.925720215,13247.55
754.19152832,13206.85
754.457397461,13144.4
754.723144531,13075.7
754.988952637,13073.425
755.254699707,13072.275
755.520385742,13097.65
755.786071777,13115.625
756.051696777,13054.375
756.317382812,13007.925
756.582946777,12986.925
756.848510742,13020.625
757.114074707,12945.225
757.379577637,12903.525
757.645080566,12985.925
757.910583496,12927.2
758.175964355,12849.2
758.441345215,12827.35
758.706848145,12648.95
758.972106934,12655.075
759.237426758,12685.325
759.502807617,12721.8
759.768005371,12728.55
760.03326416,12704.5
760.298522949,12608.1
760.563659668,12654.0
760.828857422,12613.375
761.093994141,12587.225
761.359130859,12511.5
761.624206543,12488.15
761.889282227,12442.3
762.15423584,12448.325
762.419250488,12419.3
762.684265137,12374.6
762.949157715,12340.35
763.214050293,12359.0
763.479003906,12341.8
763.743835449,12313.375
764.008666992,12268.575
764.2734375,12267.775
764.538208008,12301.1
764.802978516,12336.025
765.067687988,12290.475
765.332397461,12286.9
765.597045898,12232.125
765.861694336,12222.275
766.126342773,12185.75
766.390930176,12137.75
766.655395508,12091.125
766.920043945,12008.775
767.184509277,12024.75
767.448974609,12050.075
767.713439941,12040.025
767.977783203,11960.625
768.2421875,12043.55
768.506591797,11931.1
768.770874023,12089.575
769.03515625,11994.8
769.299499512,11977.3
769.563720703,11948.525
769.827941895,11884.875
770.092163086,11896.525
770.356323242,11852.925
770.620483398,11906.15
770.88458252,11867.95
771.148681641,11877.35
771.412719727,11889.4
771.676757812,11888.45
771.940734863,11819.65
772.204711914,11846.375
772.468688965,11814.1
772.73260498,11801.075
772.996459961,11804.7
773.260314941,10511.85
773.524169922,1331.15
773.787963867,159.875
774.051696777,123.525
774.315551758,121.375
774.579223633,121.5
774.842895508,118.7
775.106567383,122.25
775.370239258,118.55
775.633789062,123.825
775.897399902,127.175
776.160949707,116.5
776.424499512,121.275
776.687988281,123.175
776.951477051,126.075
777.214904785,120.15
777.47833252,121.9
