191.299911499,100.925
191.603515625,102.425
191.907119751,96.375
192.210693359,102.75
192.514251709,100.725
192.817810059,102.05
193.121368408,103.175
193.42489624,106.075
193.728408813,98.625
194.031936646,97.925
194.33543396,94.325
194.638916016,110.275
194.94241333,96.425
195.245880127,97.625
195.549331665,96.2
195.852767944,98.25
196.156204224,174.725
196.459625244,175.425
196.763015747,170.8
197.066436768,177.95
197.369812012,166.65
197.673187256,171.4
197.9765625,166.325
198.279922485,168.15
198.583251953,164.625
198.886581421,167.875
199.18989563,178.15
199.493209839,173.275
199.79649353,164.375
200.09979248,176.0
200.403076172,170.675
200.706314087,171.2
201.009567261,169.8
201.312820435,171.0
201.616027832,165.1
201.919235229,159.5
202.222457886,166.725
202.525634766,170.925
202.828826904,163.15
203.132003784,160.425
203.435150146,164.45
203.738296509,161.725
204.041412354,161.275
204.344558716,168.95
204.647659302,166.825
204.950759888,169.85
205.253845215,169.975
205.556930542,161.45
205.859985352,164.8
206.163024902,163.6
206.466079712,165.15
206.769104004,173.1
207.072113037,164.15
207.375137329,165.025
207.678131104,169.0
207.981109619,165.125
208.284088135,161.0
208.587036133,169.25
208.889984131,171.025
209.19291687,170.025
209.495849609,167.1
209.798751831,169.5
210.101654053,169.475
210.404556274,172.325
210.707427979,162.85
211.010269165,171.2
211.31312561,172.1
211.615982056,169.075
211.918807983,171.625
212.221618652,168.475
212.524429321,164.25
212.827224731,174.375
213.130004883,169.8
213.432769775,170.0
213.735534668,169.05
214.038269043,173.975
214.341003418,170.0
214.643737793,174.025
214.946456909,174.375
215.249145508,174.9
215.551834106,172.35
215.854507446,173.925
216.157165527,174.95
216.45980835,172.975
216.762451172,177.6
217.065078735,179.125
217.36769104,176.45
217.670303345,177.425
217.972885132,178.675
218.275466919,180.975
218.578048706,171.475
218.880599976,186.475
219.183120728,185.125
219.485656738,189.7
219.788192749,196.975
220.090682983,208.15
220.393188477,219.925
220.695663452,243.225
220.998138428,256.65
221.300582886,281.975
221.603042603,300.25
221.905487061,322.85
222.207901001,357.075
222.510299683,383.05
222.812728882,421.95
223.115097046,463.225
223.41746521,495.025
223.719848633,530.075
224.022171021,554.675
224.324508667,582.075
224.626846313,641.75
224.929168701,661.375
225.231460571,709.6
225.533737183,723.8
225.836013794,755.95
226.138290405,785.425
226.440536499,802.0
226.742767334,839.775
227.044998169,839.275
227.347213745,876.7
227.649429321,877.8
227.951629639,883.0
228.253799438,892.275
228.555953979,907.8
228.858123779,914.6
229.160263062,914.35
229.462371826,911.95
229.764511108,920.85
230.066619873,913.425
230.36869812,923.375
230.670776367,922.25
230.972854614,917.4
231.274902344,916.925
231.576950073,926.4
231.878967285,918.775
232.180999756,922.1
232.48298645,926.125
232.784988403,922.025
233.086975098,929.65
233.388946533,924.675
233.69090271,934.3
233.992858887,943.4
234.294769287,921.675
234.596694946,925.625
234.898605347,940.225
235.200500488,931.15
235.502380371,921.3
235.804244995,920.625
236.106109619,901.85
236.407958984,913.5
236.709777832,911.075
237.011581421,905.575
237.313400269,890.1
237.615203857,895.075
237.916976929,892.1
238.21875,883.95
238.520507812,881.075
238.822250366,883.275
239.12399292,878.525
239.425704956,895.35
239.727401733,862.45
240.02911377,879.45
240.330780029,869.075
240.632446289,864.3
240.93409729,861.75
241.23576355,871.375
241.537384033,875.625
241.839004517,871.225
242.140594482,870.275
242.442199707,881.15
242.743774414,872.75
243.045333862,881.5
243.346923828,886.8
243.648452759,895.325
243.949966431,894.0
244.251495361,908.9
244.552993774,911.125
244.854492188,913.45
245.155975342,926.05
245.457443237,931.075
245.758880615,934.825
246.060333252,951.175
246.36177063,940.475
246.66317749,956.325
246.964569092,960.575
247.265945435,983.0
247.567337036,977.45
247.86869812,998.15
248.170059204,999.075
248.471389771,1026.575
248.772705078,1040.1
249.074035645,1062.975
249.375335693,1076.975
249.676620483,1107.425
249.977890015,1124.2
250.279159546,1158.675
250.58039856,1181.3
250.881637573,1207.7
251.182876587,1242.35
251.484069824,1279.05
251.785263062,1310.2
252.086456299,1346.45
252.387619019,1367.075
252.688781738,1397.875
252.989929199,1443.45
253.291061401,1484.6
253.592178345,1525.0
253.893280029,1565.775
254.194366455,1611.775
254.49546814,1636.225
254.796524048,1658.375
255.097579956,1720.875
255.398620605,1742.95
255.699645996,1786.45
256.000640869,1810.6
256.30166626,1861.375
256.602661133,1887.125
256.903656006,1925.85
257.204589844,1957.175
257.505523682,1961.6
257.80645752,2016.925
258.107391357,2021.65
258.408294678,2078.05
258.709228516,2100.3
259.010070801,2104.075
259.310943604,2134.225
259.611846924,2150.65
259.912658691,2163.175
260.213500977,2182.575
260.514343262,2199.775
260.815124512,2229.775
261.115936279,2232.225
261.416717529,2248.5
261.717468262,2284.5
262.018218994,2282.225
262.318969727,2317.125
262.619689941,2357.925
262.920410156,2413.475
263.221130371,2449.025
263.521789551,2482.05
263.822479248,2538.85
264.123138428,2591.425
264.42376709,2626.825
264.72442627,2651.375
265.025054932,2684.6
265.325622559,2730.275
265.626251221,2756.225
265.926818848,2775.625
266.227386475,2761.2
266.527954102,2796.65
266.828460693,2833.85
267.12902832,2804.325
267.429534912,2823.85
267.730010986,2828.4
268.030517578,2828.825
268.330993652,2839.975
268.631439209,2858.65
268.931915283,2874.375
269.232299805,2870.525
269.532745361,2891.95
269.8331604,2872.25
270.133544922,2897.975
270.433929443,2927.425
270.734313965,2941.95
271.034637451,2965.925
271.334991455,2980.125
271.635314941,3030.225
271.935638428,3054.25
272.235931396,3116.3
272.536254883,3157.025
272.836486816,3217.725
273.136749268,3276.275
273.437011719,3363.725
273.737213135,3439.825
274.037445068,3502.85
274.337677002,3588.35
274.6378479,3652.8
274.938049316,3752.875
275.238220215,3841.25
275.538360596,3945.9
275.838500977,4017.45
276.138641357,4125.5
276.438751221,4192.525
276.738830566,4269.6
277.03894043,4338.325
277.338989258,4461.2
277.639038086,4543.45
277.939056396,4604.95
278.239105225,4676.475
278.539093018,4754.925
278.839141846,4817.975
279.139129639,4893.3
279.439086914,5001.975
279.739044189,5071.275
280.039001465,5144.6
280.338928223,5190.0
280.63885498,5248.525
280.938781738,5331.575
281.238647461,5387.925
281.538513184,5444.825
281.838409424,5479.5
282.138244629,5551.45
282.438079834,5578.775
282.737945557,5631.25
283.037719727,5685.275
283.337524414,5757.2
283.637298584,5782.425
283.937072754,5816.425
284.236816406,5860.3
284.536560059,5876.275
284.836303711,5907.775
285.136016846,5985.075
285.43572998,6018.575
285.735412598,6034.425
286.035064697,6090.3
286.334747314,6143.15
286.634368896,6170.95
286.933990479,6163.175
287.233642578,6134.2
287.533203125,6168.175
287.832824707,6130.625
288.132385254,6094.6
288.431945801,6015.275
288.731506348,5935.025
289.031036377,5819.75
289.330566406,5748.4
289.630065918,5772.075
289.92956543,5760.675
290.229034424,5847.325
290.528503418,5992.85
290.827941895,6161.15
291.127380371,6283.15
291.42678833,6399.95
291.726226807,6543.025
292.025604248,6592.85
292.324981689,6628.55
292.624359131,6681.175
292.923736572,6690.275
293.223052979,6725.275
293.522369385,6712.575
293.821685791,6720.6
294.12097168,6714.925
294.420257568,6676.05
294.719543457,6685.1
295.018768311,6711.8
295.318023682,6664.1
295.617248535,6627.8
295.916442871,6592.575
296.215667725,6550.65
296.514862061,6446.475
296.813995361,6253.875
297.11315918,6101.775
297.412322998,5990.275
297.711425781,5999.725
298.010559082,6127.7
298.309631348,6306.175
298.608734131,6487.45
298.907806396,6679.8
299.206848145,6802.5
299.505889893,6864.325
299.804901123,6983.125
300.103912354,7026.95
300.402954102,7128.075
300.701904297,7174.7
301.00088501,7265.275
301.299835205,7336.3
301.5987854,7353.725
301.897735596,7426.15
302.196624756,7467.75
302.495513916,7544.925
302.794403076,7590.8
303.093292236,7640.725
303.392120361,7712.4
303.690979004,7732.175
303.989837646,7792.15
304.288604736,7843.05
304.587402344,7842.025
304.886199951,7902.3
305.184967041,7946.375
305.483734131,7978.1
305.782501221,8011.525
306.081176758,8034.275
306.37991333,8063.975
306.678619385,8057.85
306.977294922,8080.8
307.275970459,8117.125
307.574645996,8116.975
307.873260498,8111.325
308.171875,8128.975
308.470489502,8123.225
308.769104004,8023.5
309.067687988,8037.45
309.366241455,8052.85
309.664794922,8024.225
309.963348389,8003.925
310.261871338,8035.575
310.560394287,8026.775
310.858856201,8044.8
311.157348633,8109.0
311.455810547,8091.8
311.754272461,8123.625
312.052703857,8181.025
312.351135254,8206.075
312.649536133,8194.2
312.947937012,8172.125
313.246307373,8200.425
313.544647217,8221.925
313.843017578,8178.3
314.141387939,8149.975
314.439697266,8189.075
314.738006592,8094.45
315.036315918,8062.25
315.334564209,7968.575
315.6328125,7926.625
315.931091309,7883.575
316.229309082,7784.425
316.527526855,7641.025
316.825744629,7619.075
317.123901367,7532.95
317.422088623,7481.825
317.720245361,7482.425
318.0184021,7484.625
318.316497803,7541.825
318.614654541,7559.725
318.912750244,7644.875
319.21081543,7668.875
319.50894165,7675.55
319.806945801,7672.0
320.104980469,7649.325
320.403045654,7655.275
320.701049805,7641.6
320.999023438,7620.25
321.297027588,7605.2
321.595001221,7581.325
321.892913818,7541.95
322.190887451,7470.775
322.488830566,7420.975
322.786712646,7391.6
323.084625244,7314.05
323.382507324,7294.65
323.680358887,7197.375
323.978210449,7151.9
324.276062012,7088.1
324.573852539,7050.225
324.871643066,6999.7
325.169464111,6947.85
325.467224121,6908.1
325.764984131,6833.65
326.062744141,6771.525
326.360473633,6694.725
326.658203125,6650.05
326.955871582,6576.675
327.253570557,6519.35
327.551239014,6488.375
327.848907471,6433.475
328.146514893,6352.425
328.444152832,6278.8
328.741790771,6245.625
329.039367676,6198.35
329.336914062,6139.55
329.634521484,6089.025
329.932067871,6041.775
330.229553223,5976.525
330.527160645,5907.4
330.824615479,5880.5
331.12210083,5804.45
331.419586182,5712.45
331.717041016,5669.0
332.014465332,5570.925
332.311920166,5559.95
332.609313965,5513.275
332.906707764,5492.375
333.204101562,5485.85
333.501495361,5501.85
333.798828125,5529.725
334.096160889,5571.975
334.39352417,5611.25
334.690795898,5677.425
334.988098145,5713.025
335.285400391,5763.4
335.582641602,5766.375
335.879882812,5807.4
336.177124023,5826.55
336.474334717,5913.625
336.77154541,5855.525
337.068725586,5908.625
337.365905762,5903.325
337.66305542,5915.625
337.960205078,5940.9
338.257324219,5950.15
338.554443359,5950.625
338.8515625,5989.3
339.148590088,5992.025
339.445648193,6000.2
339.742736816,5935.85
340.039764404,5943.175
340.336761475,5920.05
340.63381958,5877.525
340.930755615,5834.55
341.227722168,5748.45
341.524688721,5684.15
341.821624756,5645.3
342.118560791,5670.6
342.415496826,5750.875
342.712402344,5861.45
343.009246826,6011.45
343.306121826,6133.475
343.602966309,6163.175
343.899810791,6232.0
344.196624756,6314.5
344.493438721,6350.575
344.79019165,6388.175
345.086975098,6422.3
345.383758545,6482.3
345.680480957,6447.175
345.977203369,6470.775
346.273956299,6521.2
346.570617676,6481.05
346.86730957,6520.85
347.163970947,6493.825
347.460601807,6532.475
347.757232666,6524.0
348.053894043,6523.375
348.350463867,6461.75
348.647064209,6466.9
348.943634033,6439.425
349.24017334,6463.45
349.536712646,6379.2
349.833251953,6397.25
350.129760742,6385.675
350.426208496,6396.35
350.722747803,6357.925
351.019195557,6327.75
351.315612793,6299.675
351.612060547,6246.2
351.908508301,6221.075
352.204864502,6174.2
352.501281738,6132.025
352.797637939,6062.35
353.093963623,5976.425
353.390319824,5924.875
353.686645508,5853.775
353.982940674,5794.375
354.27923584,5746.65
354.575531006,5717.6
354.871765137,5689.375
355.167999268,5685.85
355.464233398,5667.1
355.760437012,5680.55
356.056640625,5677.2
356.352813721,5705.225
356.648956299,5680.325
356.945129395,5729.2
357.241271973,5717.425
357.537384033,5733.775
357.833496094,5664.375
358.129577637,5666.175
358.425628662,5641.125
358.721679688,5628.225
359.017730713,5622.625
359.313720703,5553.425
359.609710693,5545.025
359.905761719,5476.5
360.201721191,5439.725
360.497650146,5396.75
360.793609619,5368.575
361.089538574,5292.175
361.385437012,5213.0
361.681365967,5186.95
361.977233887,5146.1
362.273071289,5078.075
362.568908691,4980.1
362.864746094,4883.775
363.160552979,4784.375
363.456359863,4588.05
363.752166748,4454.4
364.047912598,4374.7
364.343658447,4365.975
364.639434814,4401.35
364.935119629,4438.25
365.230834961,4488.65
365.526550293,4520.05
365.822174072,4536.35
366.117858887,4558.0
366.413482666,4587.275
366.709075928,4608.95
367.004730225,4512.175
367.300292969,4515.675
367.595855713,4562.65
367.891448975,4449.45
368.186981201,4365.525
368.482513428,4339.725
368.778015137,4314.375
369.073547363,4281.65
369.36895752,4282.575
369.664428711,4203.6
369.95993042,4094.4
370.255310059,4054.575
370.550720215,4016.275
370.846160889,3983.775
371.14151001,3962.5
371.436859131,3937.55
371.73223877,3929.675
372.027557373,3901.65
372.322875977,3850.5
372.618164062,3815.95
372.913482666,3796.175
373.208709717,3763.85
373.503967285,3709.725
373.799194336,3680.15
374.094421387,3667.3
374.389648438,3637.725
374.684844971,3637.75
374.979980469,3690.625
375.275146484,3690.975
375.570281982,3709.425
375.865386963,3739.1
376.160522461,3657.125
376.455596924,3690.25
376.750640869,3757.2
377.045715332,3770.325
377.340759277,3795.125
377.635772705,3861.075
377.93081665,3870.375
378.225769043,3951.75
378.520751953,4004.15
378.815734863,3971.4
379.110656738,4118.575
379.405548096,4273.425
379.700500488,4142.25
379.995391846,3931.525
380.290252686,3986.175
380.585083008,4086.65
380.879974365,4112.9
381.17477417,4045.1
381.469543457,3970.175
381.764404297,3965.1
382.059143066,3999.125
382.353912354,4085.475
382.648651123,4157.9
382.943389893,4150.825
383.238067627,3995.85
383.532775879,4002.05
383.827484131,3943.175
384.12210083,3938.525
384.416778564,3889.8
384.711425781,3796.225
385.006011963,3832.825
385.300628662,3796.475
385.595184326,3883.875
385.88973999,3958.725
386.184295654,4088.7
386.478820801,4143.7
386.77331543,4239.15
387.067840576,4327.55
387.362335205,4398.625
387.656768799,4493.375
387.951202393,4520.875
388.245635986,4577.4
388.540039062,4672.975
388.834472656,4714.75
389.128875732,4624.95
389.423187256,4409.4
389.717559814,4363.425
390.011871338,4482.8
390.306182861,4497.9
390.600463867,4515.075
390.894775391,4580.2
391.189025879,4614.25
391.48324585,4607.55
391.777526855,4646.525
392.071685791,4855.6
392.365875244,4940.9
392.660064697,4989.875
392.95425415,5301.275
393.248382568,5274.775
393.542510986,4856.55
393.836608887,4686.475
394.130706787,4695.125
394.424804688,4630.375
394.71887207,4735.975
395.012878418,4745.1
395.306915283,4613.875
395.600921631,4569.6
395.894927979,4518.425
396.188903809,4588.325
396.482879639,4588.15
396.776794434,4787.6
397.070739746,4747.75
397.364654541,4759.35
397.658538818,5147.25
397.952423096,5151.425
398.246307373,5107.325
398.540100098,5617.3
398.833953857,5501.6
399.127746582,5022.35
399.421508789,5041.875
399.715301514,4992.375
400.009063721,4908.375
400.30279541,4780.55
400.596496582,4686.7
400.890258789,4850.425
401.183929443,4945.0
401.47756958,4815.875
401.771240234,4592.4
402.064880371,4615.575
402.35848999,4647.325
402.652130127,4564.85
402.945678711,4626.45
403.239257812,4573.925
403.532775879,4532.075
403.82635498,4554.15
404.119842529,4488.1
404.413360596,4508.675
404.706848145,4537.125
405.000274658,4468.65
405.293762207,4524.375
405.587188721,4613.725
405.880584717,4434.575
406.17401123,4256.425
406.467407227,4069.075
406.760742188,4085.625
407.054107666,4136.975
407.347442627,4050.1
407.640716553,4042.6
407.934051514,4101.075
408.227325439,4144.075
408.520568848,4336.975
408.813842773,4447.1
409.107086182,4252.35
409.400238037,4206.725
409.693450928,4132.05
409.986633301,4256.525
410.279754639,4176.4
410.572875977,3896.225
410.86605835,3817.2
411.159118652,3855.475
411.452209473,3849.25
411.745330811,3723.1
412.038360596,3641.4
412.331390381,3692.025
412.624420166,3724.5
412.917388916,3639.45
413.210388184,3473.35
413.503387451,3433.5
413.796295166,3343.525
414.089233398,3184.775
414.382141113,3107.6
414.675048828,3078.875
414.967926025,3118.575
415.260803223,3082.775
415.55368042,3095.325
415.846466064,3055.7
416.139282227,3134.45
416.432098389,3241.475
416.724853516,3243.875
417.017608643,3184.125
417.31036377,3209.025
417.603088379,3326.525
417.895782471,3287.775
418.188476562,3256.9
418.481140137,3330.175
418.773803711,3381.275
419.066436768,3362.35
419.359039307,3418.2
419.651641846,3416.925
419.944244385,3409.9
420.236816406,3385.475
420.529327393,3578.225
420.821899414,3653.2
421.114379883,3587.3
421.406860352,3832.6
421.699371338,4029.525
421.991821289,4011.15
422.284240723,3815.175
422.576721191,3674.675
422.869110107,3565.95
423.161468506,3521.125
423.453857422,3559.175
423.74621582,3430.15
424.038543701,3307.05
424.330871582,3287.85
424.623168945,3215.325
424.915435791,3345.4
425.207702637,3288.2
425.499969482,3258.1
425.792205811,3206.475
426.084411621,2962.5
426.376617432,3051.9
426.668762207,3097.825
426.9609375,3000.3
427.253082275,3089.8
427.545196533,3481.525
427.837310791,3227.975
428.129425049,2957.575
428.421447754,3157.6
428.713531494,3147.725
429.005554199,3157.55
429.297576904,3154.4
429.589599609,3569.35
429.881561279,3841.8
430.173522949,3651.7
430.465484619,3620.175
430.757415771,3688.925
431.049316406,3452.175
431.341186523,3247.6
431.633117676,3141.6
431.924957275,2866.875
432.21673584,2779.325
432.508636475,2899.8
432.800415039,2923.45
433.092163086,2817.6
433.383972168,2798.55
433.675689697,3465.1
433.967437744,3928.75
434.259155273,3031.825
434.550872803,2740.075
434.842498779,2774.925
435.134185791,2900.85
435.425842285,2936.075
435.717437744,2841.45
436.009063721,2671.375
436.30065918,2799.2
436.592224121,3114.65
436.883758545,2931.525
437.175323486,2695.225
437.466827393,2668.425
437.758331299,2677.075
438.049804688,2706.075
438.341247559,2776.55
438.63269043,2818.625
438.924163818,2817.85
439.215515137,2795.275
439.50692749,2683.575
439.798309326,2703.4
440.089660645,2700.15
440.380981445,2624.9
440.672332764,2630.325
440.963623047,2865.575
441.254882812,3281.475
441.546173096,3471.325
441.837402344,3214.45
442.128631592,3043.325
442.41986084,3026.025
442.711029053,2898.525
443.002197266,2973.4
443.293365479,3158.45
443.584503174,3287.775
443.875610352,3258.275
444.166717529,3002.1
444.457794189,3058.15
444.748840332,3041.175
445.039916992,2997.65
445.330932617,3095.025
445.621948242,2929.775
445.912963867,2746.2
446.203918457,2962.45
446.494812012,3191.125
446.785827637,2984.275
447.076721191,2817.075
447.367584229,2812.125
447.658447266,2797.225
447.949371338,2826.95
448.24017334,2716.675
448.530975342,2648.8
448.821838379,2811.05
449.112579346,2878.975
449.40335083,2825.775
449.694152832,2846.725
449.984863281,2845.4
450.27557373,2773.375
450.56628418,2861.15
450.856933594,2853.475
451.147583008,2720.7
451.438262939,2609.75
451.728881836,2821.375
452.019470215,2901.75
452.310089111,2697.15
452.600646973,2719.875
452.891174316,2762.6
453.181732178,2608.525
453.472229004,2485.525
453.762695312,2579.2
454.053222656,2631.6
454.343658447,2503.025
454.634063721,2444.05
454.924530029,2600.175
455.214935303,2725.05
455.505279541,2776.8
455.795715332,2653.575
456.086029053,2482.475
456.376312256,2452.025
456.666687012,2488.5
456.956939697,2596.575
457.247192383,2589.125
457.537445068,2661.725
457.827728271,2826.2
458.117919922,2753.25
458.408081055,2700.05
458.698303223,2846.35
458.988433838,2786.65
459.278564453,2647.7
459.568725586,2904.475
459.858825684,3011.5
460.148864746,2694.65
460.438995361,2667.325
460.729034424,2724.9
461.019042969,2728.25
461.309082031,2921.825
461.599060059,2806.475
461.889007568,2365.45
462.179016113,2214.1
462.468933105,2424.275
462.75881958,2536.525
463.048736572,2287.975
463.338592529,2540.85
463.628448486,2881.0
463.918365479,2604.675
464.2081604,2746.975
464.497924805,2710.325
464.787780762,2827.625
465.077514648,3128.2
465.367218018,2750.5
465.657012939,2953.95
465.946685791,3330.875
466.236358643,2964.65
466.526092529,2480.65
466.815734863,2464.8
467.105316162,2391.8
467.394927979,2416.25
467.684570312,2287.2
467.974121094,2388.275
468.263671875,2479.9
468.553222656,2275.225
468.842773438,2161.95
469.132232666,2087.075
469.42175293,2099.325
469.711212158,2070.975
470.000640869,1947.475
470.290100098,1997.6
470.579498291,2046.575
470.868835449,2037.775
471.158294678,2010.7
471.447601318,1989.225
471.736907959,2064.375
472.026275635,2122.775
472.315551758,2102.225
472.604797363,2093.6
472.894104004,2202.4
473.183319092,2316.425
473.47253418,2298.9
473.761779785,2296.85
474.05090332,2237.95
474.340087891,2193.575
474.629241943,2128.5
474.918365479,2283.325
475.207427979,2540.275
475.496551514,2566.925
475.785614014,2316.8
476.074645996,2136.025
476.363708496,2214.1
476.652679443,2351.875
476.941650391,2175.55
477.230682373,2038.25
477.519622803,2026.15
477.808502197,2167.95
478.097412109,2415.3
478.386352539,2385.375
478.675201416,2126.1
478.964050293,2020.275
479.25289917,2210.075
479.541717529,2257.1
479.830474854,2107.0
480.11932373,2438.05
480.408050537,2604.275
480.696777344,2241.875
480.985534668,2119.7
481.274200439,2209.375
481.562866211,2443.4
481.851593018,2447.425
482.140197754,2395.925
482.428833008,2247.0
482.717468262,2050.575
483.006011963,2096.125
483.294586182,2202.625
483.5831604,2239.8
483.871673584,2096.025
484.16015625,2244.2
484.448699951,2454.25
484.7371521,2477.475
485.02557373,2489.65
485.314025879,2241.025
485.602416992,3494.9
485.890777588,12364.85
486.179199219,11043.925
486.467559814,2945.525
486.755859375,2154.325
487.044219971,2501.825
487.332519531,2665.95
487.620758057,2301.85
487.908966064,2054.225
488.197265625,1854.675
488.485473633,1783.0
488.773651123,1883.0
489.061859131,1874.3
489.350006104,1831.3
489.638122559,1773.225
489.926300049,1787.875
490.214355469,1741.7
490.502441406,1690.125
490.790527344,1632.7
491.078552246,1819.05
491.366546631,1812.25
491.654602051,1603.775
491.942565918,1670.375
492.230499268,1705.6
492.518493652,1669.9
492.806396484,1707.825
493.094268799,1622.975
493.382202148,1651.55
493.670074463,1764.575
493.957885742,1622.225
494.245727539,1603.05
494.533508301,1774.775
494.821289062,1666.65
495.109100342,1529.525
495.396850586,1476.375
495.684539795,1437.5
495.972290039,1628.225
496.25994873,1931.075
496.547607422,1937.4
496.835296631,1770.95
497.122894287,1481.625
497.410522461,1417.45
497.6980896,1418.275
497.985687256,1377.875
498.273223877,1476.675
498.560760498,1543.15
498.848266602,1552.675
499.135772705,1524.8
499.423217773,1582.775
499.710693359,1660.1
499.998138428,1614.5
500.285522461,1459.2
500.572937012,1389.45
500.860290527,1442.8
501.147644043,1531.475
501.434997559,1726.425
501.722290039,1604.2
502.00958252,1396.95
502.296875,1638.75
502.584106445,1621.35
502.871337891,1449.75
503.158599854,1531.225
503.445770264,1601.6
503.732910156,1581.5
504.020141602,1417.025
504.307220459,1398.35
504.594329834,1419.825
504.881469727,1365.775
505.168518066,1431.75
505.455535889,1480.825
505.742614746,1371.875
506.029632568,1311.675
506.316589355,1490.8
506.603637695,1552.875
506.890563965,1384.5
507.177459717,1238.85
507.464385986,1164.075
507.751312256,1361.825
508.038146973,1428.9
508.325012207,1308.575
508.611877441,1369.925
508.898681641,1364.5
509.185424805,1228.25
509.472259521,1193.275
509.759002686,1264.05
510.045715332,1287.5
510.332458496,1235.5
510.619140625,1289.9
510.905761719,1215.275
511.192504883,1198.05
511.479095459,1247.1
511.765686035,1214.95
512.052307129,1117.6
512.338928223,1084.675
512.625427246,1129.875
512.91204834,1190.15
513.198486328,1168.175
513.484985352,1129.2
513.77142334,1072.75
514.057922363,1100.975
514.344299316,1106.85
514.63079834,1071.35
514.917175293,1056.6
515.203552246,973.15
515.489868164,957.075
515.776245117,1061.55
516.0625,1092.35
516.348815918,1017.7
516.635070801,1050.625
516.921325684,1092.8
517.207580566,1037.225
517.493774414,956.9
517.779968262,965.65
518.066101074,994.575
518.352294922,962.4
518.638366699,957.675
518.924499512,1025.225
519.210632324,1094.95
519.496643066,1073.7
519.782714844,974.975
520.068786621,950.3
520.354736328,916.55
520.640686035,880.85
520.926757812,914.9
521.212646484,983.325
521.498535156,986.2
521.784484863,948.025
522.0703125,877.35
522.356262207,897.8
522.642089844,957.925
522.927856445,960.725
523.213684082,952.1
523.499511719,948.725
523.78527832,974.825
524.070983887,1013.5
524.356750488,999.6
524.64239502,967.9
524.928039551,967.575
525.213806152,981.35
525.499389648,957.85
525.784973145,992.325
526.070617676,1035.95
526.356140137,1003.9
526.641723633,1003.6
526.927307129,1057.275
527.212768555,1064.05
527.498291016,1042.525
527.783752441,1037.55
528.069213867,1017.475
528.354675293,1050.175
528.640014648,1185.85
528.925476074,1237.95
529.21081543,1177.775
529.496154785,1152.45
529.781555176,1128.15
530.066833496,1142.45
530.352050781,1164.45
530.637390137,1141.375
530.922607422,1139.075
531.207824707,1144.425
531.493041992,1120.8
531.778198242,1191.5
532.063354492,1163.35
532.348571777,1113.65
532.633666992,1131.45
532.918762207,1200.775
533.203857422,1272.275
533.488891602,1291.35
533.773925781,1250.875
534.059020996,1221.675
534.343933105,1241.925
534.628967285,1226.65
534.91394043,1238.0
535.198852539,1247.575
535.483703613,1234.5
535.768676758,1183.6
536.053527832,1194.5
536.338317871,1145.925
536.62322998,1099.35
536.90802002,1074.475
537.192810059,1096.725
537.477539062,1152.875
537.762329102,1189.525
538.047058105,1236.275
538.331726074,1246.825
538.616455078,1247.95
538.901123047,1219.4
539.18572998,1261.175
539.470397949,1270.525
539.755004883,1257.0
540.039550781,1222.2
540.32409668,1200.5
540.608703613,1213.875
540.893188477,1305.375
541.17767334,1310.475
541.462158203,1315.1
541.746643066,1266.2
542.031066895,1303.45
542.315429688,1338.425
542.59979248,1334.525
542.884216309,1332.7
543.168579102,1322.975
543.452941895,1321.9
543.737243652,1376.125
544.021484375,1404.1
544.305725098,1404.75
544.590026855,1378.25
544.874267578,1394.925
545.158447266,1452.525
545.442626953,1379.6
545.726806641,1284.575
546.010925293,1317.9
546.29510498,1339.675
546.579162598,1329.325
546.863220215,1357.275
547.147277832,1427.075
547.431335449,1487.725
547.715332031,1540.175
547.999328613,1638.875
548.283325195,1636.975
548.567260742,1515.525
548.851135254,1506.275
549.135070801,1470.05
549.419006348,1396.85
549.702819824,1465.625
549.986755371,1533.175
550.270507812,1504.225
550.554321289,1538.6
550.83807373,1552.525
551.121826172,1504.125
551.405517578,1530.025
551.689331055,1623.15
551.973022461,1812.6
552.256652832,1858.925
552.540344238,1776.175
552.823974609,1757.55
553.107543945,1740.325
553.391174316,1800.1
553.674743652,1838.85
553.958251953,1843.3
554.241821289,1847.75
554.525268555,1796.35
554.808776855,1789.9
555.092285156,1949.45
555.375671387,2022.975
555.659057617,2008.875
555.942504883,2040.05
556.225891113,2060.675
556.509216309,2050.325
556.792541504,1967.325
557.075866699,2021.7
557.359130859,2059.6
557.64239502,2050.875
557.92565918,2127.375
558.208862305,2107.875
558.49206543,2042.35
558.77532959,2066.575
559.058410645,2108.95
559.341552734,2090.9
559.624694824,2131.775
559.907775879,2192.45
560.190856934,2293.975
560.473937988,2283.15
560.756896973,2324.9
561.039978027,2351.4
561.322937012,2308.75
561.605895996,2303.475
561.88885498,2272.075
562.171813965,2274.4
562.454650879,2280.6
562.737548828,2301.3
563.020446777,2347.225
563.303283691,2373.075
563.58605957,2395.525
563.868896484,2424.1
564.151672363,2448.475
564.434387207,2478.125
564.717163086,2453.325
564.99987793,2484.5
565.282531738,2549.275
565.565185547,2500.65
565.847839355,2504.95
566.130432129,2598.7
566.413085938,2575.175
566.695678711,2588.475
566.978149414,2668.9
567.260681152,2801.875
567.543273926,2881.5
567.825744629,2785.975
568.108154297,2817.275
568.390686035,2927.45
568.673095703,3027.075
568.955505371,3054.725
569.237854004,3091.575
569.520202637,3316.075
569.802490234,3488.825
570.084838867,3463.275
570.367126465,3331.0
570.649414062,3342.05
570.93170166,3659.725
571.213928223,3716.575
571.496154785,3507.05
571.778381348,3709.325
572.06048584,3911.3
572.342590332,3559.025
572.624755859,3240.825
572.906860352,3297.925
573.188903809,3890.0
573.470947266,4060.4
573.752990723,3876.725
574.03503418,3973.925
574.317016602,4299.85
574.598937988,4114.5
574.88092041,4015.25
575.162841797,4161.95
575.444763184,3860.475
575.726623535,3648.95
576.008483887,3672.4
576.290344238,4014.5
576.572143555,4196.125
576.853881836,4261.375
577.135681152,4170.7
577.417419434,4229.075
577.699157715,4960.2
577.980895996,5102.6
578.262573242,4547.725
578.544128418,4156.475
578.825866699,4081.45
579.107421875,3840.075
579.388977051,3993.175
579.670593262,4339.775
579.952148438,4195.2
580.233642578,4294.075
580.515197754,4393.85
580.796691895,4126.275
581.078125,4277.975
581.359619141,5598.25
581.640991211,5648.625
581.922363281,4876.1
582.203796387,4939.95
582.485107422,4611.425
582.766418457,4289.875
583.047790527,4160.175
583.329040527,4085.0
583.610290527,3970.2
583.891540527,4075.825
584.172790527,4342.65
584.453918457,4347.35
584.735107422,4403.125
585.016235352,4799.35
585.297363281,4771.0
585.578552246,4601.6
585.859619141,4547.225
586.140625,4352.225
586.421630859,4251.05
586.702697754,4289.675
586.983642578,4491.275
587.264648438,4652.25
587.545654297,4592.8
587.826477051,4550.4
588.107421875,4390.825
588.388305664,4423.05
588.669189453,4531.15
588.950012207,4400.325
589.230834961,4314.275
589.511657715,4386.075
589.792358398,4486.825
590.073120117,4479.5
590.353881836,4447.8
590.63458252,4484.75
590.915283203,4439.95
591.195922852,4445.55
591.4765625,4487.8
591.757202148,4518.975
592.037780762,4517.225
592.31829834,4558.425
592.598937988,4740.9
592.879394531,4878.9
593.159912109,4807.5
593.440429688,4778.3
593.720825195,4738.425
594.001281738,4711.775
594.281677246,4649.025
594.562072754,4684.65
594.842407227,4790.75
595.122802734,4808.05
595.403137207,4802.375
595.683410645,4783.225
595.963623047,4779.55
596.243896484,4734.025
596.524169922,4736.925
596.804382324,4751.575
597.084533691,4796.9
597.364746094,4812.55
597.644836426,4849.05
597.924987793,4823.275
598.205078125,4805.475
598.485107422,4842.775
598.765197754,4960.625
599.045227051,4995.875
599.325195312,4930.575
599.605224609,4908.15
599.885192871,4943.825
600.165100098,4968.525
600.445007324,4939.975
600.724914551,4957.675
601.004760742,4961.225
601.284667969,4999.075
601.56451416,4980.775
601.844238281,4965.075
602.124084473,4996.75
602.403808594,4992.35
602.683532715,5029.9
602.963256836,5013.575
603.242919922,5056.525
603.522583008,5112.225
603.802246094,5076.575
604.081848145,5033.225
604.36138916,5039.975
604.641052246,5061.225
604.920532227,5038.65
605.200073242,5073.9
605.479614258,5109.95
605.759094238,5126.275
606.038574219,5150.3
606.317932129,5085.75
606.597412109,5084.625
606.87677002,5104.75
607.15612793,5140.95
607.435546875,5173.75
607.714782715,5141.7
607.99407959,5123.5
608.273376465,5111.775
608.552612305,5142.375
608.831848145,5154.425
609.111083984,5154.475
609.390258789,5139.725
609.669433594,5142.575
609.948608398,5182.75
610.227722168,5190.1
610.506713867,5143.1
610.785888672,5155.3
611.064880371,5144.225
611.34387207,5158.975
611.622924805,5161.125
611.901916504,5170.925
612.180847168,5131.25
612.459777832,5124.15
612.738647461,5120.65
613.01751709,5107.1
613.296447754,5048.8
613.575317383,5046.625
613.854064941,5002.95
614.132873535,4930.0
614.411621094,4852.125
614.690368652,4818.525
614.969177246,4780.925
615.247802734,4712.2
615.526489258,4681.25
615.805175781,4586.55
616.08380127,4489.225
616.362365723,4414.425
616.640991211,4375.975
616.919555664,4311.2
617.198059082,4450.675
617.4765625,4658.825
617.755126953,4815.775
618.033569336,4845.25
618.311950684,4831.325
618.590454102,4822.175
618.868774414,4817.775
619.147155762,4818.15
619.425598145,4805.15
619.703857422,4807.775
619.982177734,4824.45
620.260498047,4815.35
620.538757324,4818.75
620.816955566,4774.775
621.095214844,4726.575
621.373413086,4750.225
621.651550293,4810.875
621.929748535,4835.125
622.207824707,4806.075
622.485900879,4832.125
622.764038086,4834.075
623.042053223,4860.425
623.320007324,4880.4
623.598083496,4894.05
623.876037598,4861.325
624.153991699,4884.025
624.432006836,4905.75
624.709838867,4910.0
624.987731934,4884.675
625.265563965,4880.625
625.543395996,4908.625
625.821228027,4935.7
626.098999023,4940.4
626.376831055,4982.5
626.654541016,5011.675
626.932250977,5024.025
627.209960938,5066.275
627.487670898,5078.175
627.765319824,5098.3
628.04296875,5107.65
628.320495605,5109.1
628.598083496,5115.7
628.875671387,5145.45
629.153259277,5169.2
629.430725098,5205.275
629.708251953,5203.925
629.985656738,5221.15
630.263122559,5249.325
630.540588379,5249.95
630.817932129,5288.625
631.095275879,5322.4
631.372680664,5329.275
631.649963379,5371.425
631.927246094,5407.075
632.204589844,5445.125
632.481811523,5508.825
632.759033203,5584.225
633.036254883,5598.525
633.313415527,5676.425
633.590576172,5699.05
633.867736816,5798.175
634.144836426,5861.725
634.421875,5897.975
634.698913574,5961.1
634.976013184,5986.9
635.252990723,6062.2
635.529968262,6080.875
635.807006836,6137.625
636.08392334,6123.85
636.360839844,6040.65
636.637756348,5942.775
636.914611816,5919.075
637.191467285,5883.125
637.468261719,5933.425
637.745056152,5900.85
638.021789551,5938.775
638.298583984,5943.65
638.575317383,5994.55
638.851989746,5973.75
639.12878418,5983.75
639.405395508,5953.05
639.682006836,5994.625
639.958618164,5987.25
640.235229492,5972.8
640.511779785,5994.575
640.788330078,5950.825
641.064880371,5965.025
641.341308594,5924.775
641.617797852,5945.325
641.894226074,5938.525
642.170654297,5967.7
642.44708252,5960.525
642.723388672,5928.45
642.999755859,5948.875
643.276123047,5941.875
643.552429199,5893.1
643.828674316,5916.975
644.104919434,5900.6
644.381164551,5871.275
644.657348633,5895.0
644.933532715,5846.875
645.209716797,5880.15
645.485839844,5852.55
645.761901855,5841.525
646.038024902,5818.95
646.314086914,5839.9
646.590087891,5831.6
646.866149902,5845.275
647.142150879,5799.125
647.41809082,5775.85
647.694030762,5785.2
647.969970703,5747.65
648.245788574,5764.725
648.521728516,5751.5
648.797546387,5739.075
649.073303223,5758.175
649.349182129,5704.0
649.624938965,5709.8
649.900634766,5725.0
650.176391602,5711.075
650.452087402,5694.525
650.727783203,5675.575
651.003479004,5681.175
651.279052734,5673.825
651.554626465,5659.75
651.83026123,5658.85
652.105773926,5691.05
652.381286621,5613.35
652.656860352,5632.225
652.932312012,5630.825
653.207763672,5615.425
653.483215332,5637.65
653.758605957,5615.575
654.033935547,5621.375
654.309326172,5627.625
654.584716797,5647.1
654.859985352,5626.575
655.135253906,5626.05
655.410583496,5663.05
655.685791016,6518.525
655.9609375,10144.875
656.236206055,9897.575
656.511291504,6526.525
656.786437988,5782.875
657.061645508,5637.4
657.336669922,5613.35
657.611694336,5650.525
657.886779785,5659.225
658.161804199,5671.525
658.436828613,5651.25
658.711791992,5629.875
658.986755371,5639.775
659.261657715,5649.075
659.536621094,5651.375
659.811401367,5654.6
660.086303711,5664.25
660.36114502,5671.575
660.635864258,5668.225
660.910644531,5668.35
661.185424805,5652.675
661.460205078,5664.0
661.734863281,5647.35
662.009521484,5651.075
662.284179688,5657.625
662.558776855,5694.15
662.833435059,5718.2
663.108032227,5688.125
663.382568359,5690.625
663.657043457,5720.9
663.93157959,5737.675
664.206054688,5727.725
664.48046875,5737.025
664.755004883,5753.0
665.02935791,5754.0
665.303710938,5761.225
665.578125,5780.5
665.852416992,5769.475
666.126708984,5769.775
666.401062012,5772.0
666.675292969,5791.575
666.949462891,5796.9
667.223754883,5789.0
667.497924805,5826.825
667.772094727,5826.9
668.046264648,5806.2
668.3203125,5846.175
668.594421387,5844.6
668.868469238,5840.175
669.14251709,5851.9
669.416503906,5866.875
669.690551758,5857.6
669.964477539,5848.85
670.23840332,5855.7
670.512329102,5851.875
670.786254883,5835.225
671.060058594,5875.125
671.333984375,5878.6
671.607788086,5901.25
671.881530762,5869.975
672.155334473,5923.8
672.429077148,5909.1
672.702758789,5914.1
672.97644043,5893.375
673.25012207,5912.3
673.523742676,5895.9
673.797302246,5873.6
674.070922852,5957.05
674.344482422,5942.1
674.618041992,5945.95
674.891601562,5950.725
675.165100098,5939.825
675.438476562,5933.375
675.711975098,5958.525
675.985412598,5936.0
676.258789062,5914.725
676.532165527,5943.075
676.805480957,5928.975
677.078796387,5959.575
677.352111816,5953.925
677.625366211,5939.775
677.898620605,5928.15
678.171875,5972.2
678.445007324,5952.35
678.718200684,5993.325
678.991394043,5965.225
679.264404297,5965.05
679.537536621,5986.65
679.81060791,5995.725
680.083679199,5997.5
680.356689453,5999.8
680.629699707,5970.6
680.902648926,5978.825
681.175598145,6033.675
681.448547363,6028.125
681.721435547,6015.65
681.99420166,5977.825
682.267150879,5994.3
682.539916992,6035.8
682.812744141,5997.575
683.085510254,6017.6
683.358215332,6017.1
683.63092041,5979.7
683.903625488,5994.475
684.176330566,5983.825
684.448913574,5988.275
684.721557617,5977.325
684.99420166,6024.775
685.266662598,6017.3
685.539245605,6031.825
685.811767578,6059.45
686.084289551,6062.75
686.356689453,6069.9
686.629150391,6098.925
686.901550293,6107.275
687.17401123,6086.025
687.446350098,6126.125
687.718688965,6105.525
687.990966797,6161.15
688.263305664,6131.075
688.535522461,6115.45
688.807739258,6115.0
689.079956055,6150.95
689.352172852,6170.45
689.624328613,6146.175
689.896484375,6168.475
690.168518066,6182.125
690.440612793,6198.975
690.71270752,6186.3
690.984741211,6199.5
691.256713867,6219.575
691.528747559,6219.35
691.800720215,6232.225
692.072631836,6249.3
692.344543457,6264.775
692.616394043,6274.275
692.888244629,6270.675
693.160095215,6299.775
693.431945801,6325.9
693.703674316,6325.35
693.975463867,6296.025
694.247131348,6317.15
694.518859863,6304.675
694.790588379,6351.8
695.062255859,6330.275
695.33380127,6316.65
695.60546875,6334.275
695.87701416,6346.375
696.148498535,6326.525
696.42010498,6394.65
696.691589355,6393.925
696.96307373,6397.425
697.234558105,6439.3
697.50592041,6456.55
697.777282715,6468.525
698.048706055,6437.075
698.320068359,6468.475
698.591308594,6466.65
698.862670898,6456.575
699.133972168,6508.75
699.405151367,6476.925
699.676391602,6493.375
699.947570801,6486.0
700.21875,6480.7
700.489868164,6493.875
700.761047363,6507.425
701.032104492,6544.675
701.303100586,6508.075
701.57421875,6557.275
701.845214844,6564.4
702.116149902,6560.525
702.387207031,6557.325
702.65814209,6588.15
702.928955078,6606.7
703.199951172,6585.85
703.47076416,6554.125
703.741577148,6571.65
704.012451172,6586.875
704.28314209,6616.125
704.553955078,6619.825
704.824707031,6644.25
705.095397949,6663.075
705.366027832,6670.275
705.63671875,6677.1
705.907348633,6644.7
706.17791748,6654.225
706.448486328,6684.1
706.719055176,6722.925
706.989562988,6730.975
707.260131836,6721.15
707.530517578,6763.85
707.800964355,6736.775
708.071411133,6742.9
708.341796875,6737.85
708.612182617,6736.75
708.882446289,6738.325
709.152893066,6756.975
709.423156738,6778.975
709.693359375,6756.7
709.963623047,6769.975
710.233825684,6782.4
710.503967285,6747.475
710.774169922,6769.775
711.044311523,6750.9
711.31439209,6752.3
711.584533691,6807.7
711.854553223,6787.125
712.124572754,6787.05
712.39465332,6776.9
712.664611816,6838.025
712.934509277,6875.4
713.204467773,6851.9
713.474365234,6865.075
713.74420166,6846.15
714.014099121,6858.95
714.283874512,6840.1
714.553710938,6909.825
714.823486328,6914.525
715.093200684,6877.125
715.362915039,6921.075
715.632629395,6874.625
715.902282715,6879.3
716.171875,6881.775
716.441589355,6882.875
716.711181641,6865.45
716.980712891,6892.7
717.250244141,6880.125
717.519775391,6899.975
717.78918457,6916.925
718.058654785,6975.85
718.328125,6993.4
718.597473145,6959.3
718.866882324,6961.15
719.136230469,6983.1
719.405578613,6983.4
719.674865723,7011.85
719.944152832,6972.9
720.213439941,6961.625
720.48260498,7013.925
720.75177002,7015.975
721.020996094,7030.475
721.290100098,7040.85
721.559204102,7009.15
721.828308105,7044.675
722.097351074,7062.3
722.366455078,7005.2
722.635437012,7007.7
722.904418945,6976.925
723.173400879,7044.95
723.442321777,7066.475
723.711181641,7045.275
723.980102539,7077.425
724.248962402,7100.725
724.51776123,7061.625
724.786560059,7088.95
725.055358887,7104.95
725.324035645,7109.9
725.592834473,7111.45
725.86151123,7085.35
726.130187988,7107.275
726.398803711,7095.075
726.667419434,7104.875
726.935974121,7107.85
727.204528809,7063.275
727.473083496,7088.875
727.741638184,7084.15
728.010070801,7059.55
728.278564453,7075.2
728.546936035,7076.525
728.815368652,7012.675
729.08380127,6963.1
729.352111816,6953.675
729.620361328,6886.6
729.88873291,6967.325
730.156982422,7005.15
730.425231934,7022.15
730.693481445,7037.275
730.961669922,7075.625
731.229797363,7097.875
731.49798584,7123.75
731.766113281,7169.55
732.034118652,7219.525
732.302246094,7243.025
732.570251465,7275.575
732.838256836,7352.825
733.106262207,7412.55
733.374145508,7441.2
733.642089844,7490.75
733.909973145,7503.225
734.177856445,7606.125
734.445678711,7665.325
734.713562012,7779.375
734.981323242,7779.45
735.249084473,7835.25
735.516845703,7983.075
735.784545898,8019.825
736.052185059,8062.725
736.319885254,8134.65
736.587524414,8198.9
736.855102539,8231.675
737.122619629,8363.625
737.390197754,8364.525
737.657714844,8462.775
737.925170898,8503.95
738.192749023,8636.875
738.460144043,8669.875
738.727539062,8725.45
738.994995117,8814.825
739.262329102,8897.875
739.529663086,9002.375
739.79699707,9030.625
740.06427002,9117.075
740.331481934,9187.875
740.598754883,9236.3
740.865905762,9263.275
741.133056641,9394.975
741.40032959,9413.85
741.667358398,9510.175
741.934448242,9524.575
742.201599121,9572.725
742.468566895,9679.625
742.735534668,9715.65
743.002563477,9741.725
743.26953125,9732.525
743.536437988,9793.9
743.803405762,9898.175
744.0703125,9874.0
744.337097168,9988.5
744.604003906,9911.7
744.870727539,10012.25
745.137512207,10031.4
745.40423584,10070.675
745.670959473,10060.65
745.93762207,10091.35
746.204284668,10114.25
746.470947266,10150.625
746.737548828,10113.8
747.004089355,10185.05
747.270751953,10195.55
747.53717041,10236.75
747.803710938,10211.3
748.070251465,10183.275
748.336608887,10205.4
748.603027344,10172.975
748.869445801,10174.45
749.135803223,10200.5
749.402099609,10232.3
749.668457031,10255.4
749.934753418,10245.575
750.20098877,10182.05
750.467224121,10218.275
750.733459473,10216.95
750.999572754,10197.4
751.26574707,10145.225
751.531860352,10187.0
751.797912598,10156.9
752.064025879,10103.575
752.330078125,10127.425
752.596069336,10104.0
752.862060547,10103.2
753.127990723,10110.425
753.393920898,10088.65
753.659912109,10069.35
753.925720215,10121.575
754.19152832,10089.0
754.457397461,10042.925
754.723144531,10005.625
754.988952637,9993.6
755.254699707,10016.925
755.520385742,10020.6
755.786071777,10007.875
756.051696777,9991.8
756.317382812,9969.925
756.582946777,9950.925
756.848510742,10002.05
757.114074707,9918.95
757.379577637,9927.65
757.645080566,10005.85
757.910583496,9953.1
758.175964355,9918.925
758.441345215,9875.7
758.706848145,9779.125
758.972106934,9768.9
759.237426758,9801.65
759.502807617,9819.6
759.768005371,9852.7
760.03326416,9830.2
760.298522949,9758.625
760.563659668,9793.4
760.828857422,9799.45
761.093994141,9786.95
761.359130859,9720.975
761.624206543,9704.375
761.889282227,9702.425
762.15423584,9678.525
762.419250488,9695.5
762.684265137,9669.9
762.949157715,9633.075
763.214050293,9656.175
763.479003906,9646.95
763.743835449,9607.2
764.008666992,9598.775
764.2734375,9609.6
764.538208008,9644.575
764.802978516,9664.225
765.067687988,9638.75
765.332397461,9651.375
765.597045898,9640.6
765.861694336,9606.8
766.126342773,9562.225
766.390930176,9556.15
766.655395508,9520.65
766.920043945,9471.325
767.184509277,9514.125
767.448974609,9516.875
767.713439941,9493.175
767.977783203,9451.4
768.2421875,9494.325
768.506591797,9433.475
768.770874023,9569.65
769.03515625,9515.925
769.299499512,9509.35
769.563720703,9505.525
769.827941895,9473.35
770.092163086,9445.9
770.356323242,9447.525
770.620483398,9483.3
770.88458252,9490.2
771.148681641,9471.9
771.412719727,9486.675
771.676757812,9494.0
771.940734863,9455.3
772.204711914,9430.95
772.468688965,9432.6
772.73260498,9408.85
772.996459961,9435.975
773.260314941,8394.475
773.524169922,1077.75
773.787963867,147.375
774.051696777,123.55
774.315551758,121.9
774.579223633,120.7
774.842895508,124.25
775.106567383,120.125
775.370239258,116.175
775.633789062,121.575
775.897399902,124.3
776.160949707,116.65
776.424499512,119.45
776.687988281,124.2
776.951477051,125.525
777.214904785,117.875
777.47833252,121.6
