191.299911499,102.125
191.603515625,105.15
191.907119751,97.45
192.210693359,108.75
192.514251709,100.15
192.817810059,104.225
193.121368408,106.05
193.42489624,108.325
193.728408813,101.625
194.031936646,100.275
194.33543396,95.7
194.638916016,112.325
194.94241333,102.6
195.245880127,98.725
195.549331665,100.075
195.852767944,99.45
196.156204224,189.75
196.459625244,185.825
196.763015747,184.275
197.066436768,195.275
197.369812012,187.625
197.673187256,191.975
197.9765625,184.725
198.279922485,188.65
198.583251953,180.8
198.886581421,186.075
199.18989563,193.5
199.493209839,186.775
199.79649353,180.45
200.09979248,191.475
200.403076172,185.35
200.706314087,186.525
201.009567261,185.775
201.312820435,186.9
201.616027832,178.375
201.919235229,173.725
202.222457886,176.45
202.525634766,184.95
202.828826904,178.125
203.132003784,176.0
203.435150146,175.475
203.738296509,179.175
204.041412354,177.25
204.344558716,182.45
204.647659302,186.2
204.950759888,184.325
205.253845215,179.825
205.556930542,177.45
205.859985352,178.55
206.163024902,180.225
206.466079712,182.225
206.769104004,189.375
207.072113037,179.975
207.375137329,182.425
207.678131104,183.45
207.981109619,186.2
208.284088135,175.45
208.587036133,185.35
208.889984131,186.9
209.19291687,189.825
209.495849609,186.0
209.798751831,187.85
210.101654053,186.925
210.404556274,188.25
210.707427979,184.35
211.010269165,195.875
211.31312561,194.525
211.615982056,194.625
211.918807983,195.725
212.221618652,191.65
212.524429321,192.025
212.827224731,197.15
213.130004883,195.025
213.432769775,195.275
213.735534668,198.1
214.038269043,201.0
214.341003418,201.325
214.643737793,205.325
214.946456909,203.925
215.249145508,205.5
215.551834106,209.3
215.854507446,211.125
216.157165527,210.8
216.45980835,213.25
216.762451172,217.6
217.065078735,217.25
217.36769104,214.15
217.670303345,219.55
217.972885132,224.825
218.275466919,231.225
218.578048706,227.55
218.880599976,233.525
219.183120728,240.15
219.485656738,251.775
219.788192749,269.975
220.090682983,297.6
220.393188477,325.8
220.695663452,374.925
220.998138428,415.4
221.300582886,480.175
221.603042603,538.225
221.905487061,610.375
222.207901001,697.875
222.510299683,791.7
222.812728882,901.6
223.115097046,1007.3
223.41746521,1133.525
223.719848633,1255.5
224.022171021,1367.75
224.324508667,1509.05
224.626846313,1664.025
224.929168701,1783.925
225.231460571,1923.3
225.533737183,2049.3
225.836013794,2194.875
226.138290405,2309.975
226.440536499,2453.3
226.742767334,2556.7
227.044998169,2678.175
227.347213745,2813.1
227.649429321,2911.0
227.951629639,3011.075
228.253799438,3097.1
228.555953979,3167.475
228.858123779,3256.45
229.160263062,3313.975
229.462371826,3376.875
229.764511108,3435.625
230.066619873,3486.125
230.36869812,3553.45
230.670776367,3597.2
230.972854614,3655.325
231.274902344,3699.725
231.576950073,3783.725
231.878967285,3803.4
232.180999756,3868.025
232.48298645,3918.45
232.784988403,3985.525
233.086975098,4023.6
233.388946533,4033.825
233.69090271,4097.75
233.992858887,4111.25
234.294769287,4107.85
234.596694946,4116.9
234.898605347,4146.65
235.200500488,4151.525
235.502380371,4133.775
235.804244995,4114.475
236.106109619,4050.8
236.407958984,4036.075
236.709777832,4034.3
237.011581421,3978.825
237.313400269,3899.875
237.615203857,3834.9
237.916976929,3824.375
238.21875,3748.975
238.520507812,3680.575
238.822250366,3629.55
239.12399292,3563.225
239.425704956,3482.275
239.727401733,3384.025
240.02911377,3335.825
240.330780029,3256.375
240.632446289,3173.4
240.93409729,3117.625
241.23576355,3021.5
241.537384033,2949.05
241.839004517,2865.775
242.140594482,2782.075
242.442199707,2724.775
242.743774414,2633.625
243.045333862,2566.5
243.346923828,2479.975
243.648452759,2401.125
243.949966431,2311.15
244.251495361,2253.0
244.552993774,2164.35
244.854492188,2066.35
245.155975342,2000.125
245.457443237,1937.175
245.758880615,1841.3
246.060333252,1783.55
246.36177063,1698.925
246.66317749,1623.9
246.964569092,1557.7
247.265945435,1499.175
247.567337036,1426.15
247.86869812,1398.325
248.170059204,1327.3
248.471389771,1281.2
248.772705078,1235.375
249.074035645,1192.725
249.375335693,1148.7
249.676620483,1126.875
249.977890015,1083.5
250.279159546,1065.85
250.58039856,1021.45
250.881637573,992.175
251.182876587,974.125
251.484069824,940.15
251.785263062,926.025
252.086456299,917.525
252.387619019,894.4
252.688781738,875.025
252.989929199,862.45
253.291061401,836.05
253.592178345,836.8
253.893280029,813.95
254.194366455,808.8
254.49546814,793.025
254.796524048,781.475
255.097579956,781.0
255.398620605,758.15
255.699645996,768.675
256.000640869,740.8
256.30166626,742.5
256.602661133,742.675
256.903656006,729.45
257.204589844,724.925
257.505523682,721.175
257.80645752,720.775
258.107391357,721.5
258.408294678,709.3
258.709228516,704.0
259.010070801,702.7
259.310943604,703.35
259.611846924,706.325
259.912658691,710.35
260.213500977,709.575
260.514343262,705.25
260.815124512,717.2
261.115936279,716.325
261.416717529,722.575
261.717468262,734.2
262.018218994,735.975
262.318969727,752.1
262.619689941,766.35
262.920410156,790.9
263.221130371,799.25
263.521789551,827.55
263.822479248,850.425
264.123138428,880.3
264.42376709,907.975
264.72442627,926.975
265.025054932,945.325
265.325622559,980.525
265.626251221,1003.65
265.926818848,1032.7
266.227386475,1043.625
266.527954102,1080.75
266.828460693,1130.825
267.12902832,1136.675
267.429534912,1173.6
267.730010986,1201.15
268.030517578,1224.275
268.330993652,1270.0
268.631439209,1298.8
268.931915283,1353.875
269.232299805,1381.2
269.532745361,1426.275
269.8331604,1467.35
270.133544922,1502.55
270.433929443,1560.125
270.734313965,1606.7
271.034637451,1669.675
271.334991455,1716.1
271.635314941,1805.625
271.935638428,1873.65
272.235931396,1945.075
272.536254883,2015.575
272.836486816,2102.15
273.136749268,2191.8
273.437011719,2300.475
273.737213135,2417.35
274.037445068,2513.9
274.337677002,2642.125
274.6378479,2746.2
274.938049316,2898.7
275.238220215,3034.75
275.538360596,3176.65
275.838500977,3298.35
276.138641357,3474.825
276.438751221,3581.025
276.738830566,3726.2
277.03894043,3861.25
277.338989258,4034.8
277.639038086,4187.175
277.939056396,4319.125
278.239105225,4470.475
278.539093018,4603.475
278.839141846,4736.625
279.139129639,4902.2
279.439086914,5052.1
279.739044189,5189.525
280.039001465,5334.4
280.338928223,5438.0
280.63885498,5582.35
280.938781738,5741.95
281.238647461,5859.05
281.538513184,5974.8
281.838409424,6096.525
282.138244629,6227.5
282.438079834,6307.8
282.737945557,6420.075
283.037719727,6530.975
283.337524414,6623.4
283.637298584,6720.825
283.937072754,6806.625
284.236816406,6910.075
284.536560059,6979.425
284.836303711,7057.775
285.136016846,7185.65
285.43572998,7260.45
285.735412598,7285.825
286.035064697,7358.425
286.334747314,7461.9
286.634368896,7541.35
286.933990479,7497.6
287.233642578,7538.825
287.533203125,7588.15
287.832824707,7575.25
288.132385254,7531.2
288.431945801,7442.625
288.731506348,7371.5
289.031036377,7220.75
289.330566406,7150.9
289.630065918,7193.825
289.92956543,7178.7
290.229034424,7315.0
290.528503418,7501.75
290.827941895,7696.425
291.127380371,7831.45
291.42678833,8014.7
291.726226807,8172.275
292.025604248,8242.775
292.324981689,8304.85
292.624359131,8337.975
292.923736572,8371.0
293.223052979,8422.375
293.522369385,8414.225
293.821685791,8387.925
294.12097168,8401.35
294.420257568,8387.75
294.719543457,8365.475
295.018768311,8382.525
295.318023682,8281.2
295.617248535,8261.1
295.916442871,8194.075
296.215667725,8155.175
296.514862061,8015.05
296.813995361,7795.15
297.11315918,7597.575
297.412322998,7473.175
297.711425781,7463.4
298.010559082,7624.0
298.309631348,7865.95
298.608734131,8083.225
298.907806396,8265.55
299.206848145,8444.9
299.505889893,8518.725
299.804901123,8649.925
300.103912354,8730.1
300.402954102,8804.575
300.701904297,8878.175
301.00088501,8966.025
301.299835205,9032.3
301.5987854,9072.825
301.897735596,9180.75
302.196624756,9198.525
302.495513916,9310.8
302.794403076,9338.075
303.093292236,9404.4
303.392120361,9483.325
303.690979004,9568.25
303.989837646,9617.575
304.288604736,9676.4
304.587402344,9661.275
304.886199951,9714.775
305.184967041,9780.025
305.483734131,9828.4
305.782501221,9852.2
306.081176758,9853.7
306.37991333,9901.075
306.678619385,9921.65
306.977294922,9939.55
307.275970459,9959.9
307.574645996,9983.975
307.873260498,9962.175
308.171875,9975.4
308.470489502,9956.225
308.769104004,9898.875
309.067687988,9900.775
309.366241455,9923.775
309.664794922,9851.075
309.963348389,9860.075
310.261871338,9873.625
310.560394287,9898.225
310.858856201,9904.125
311.157348633,9925.325
311.455810547,9964.55
311.754272461,9967.925
312.052703857,10052.275
312.351135254,10064.675
312.649536133,10062.725
312.947937012,10068.575
313.246307373,10096.1
313.544647217,10082.95
313.843017578,10022.075
314.141387939,10011.325
314.439697266,10047.325
314.738006592,9956.55
315.036315918,9889.05
315.334564209,9793.8
315.6328125,9737.875
315.931091309,9643.35
316.229309082,9540.4
316.527526855,9391.5
316.825744629,9337.05
317.123901367,9226.75
317.422088623,9200.0
317.720245361,9195.25
318.0184021,9212.725
318.316497803,9278.5
318.614654541,9311.15
318.912750244,9371.625
319.21081543,9395.45
319.50894165,9407.05
319.806945801,9409.025
320.104980469,9393.725
320.403045654,9416.65
320.701049805,9380.625
320.999023438,9367.325
321.297027588,9315.175
321.595001221,9298.175
321.892913818,9246.375
322.190887451,9192.125
322.488830566,9094.7
322.786712646,9103.4
323.084625244,8986.625
323.382507324,8964.5
323.680358887,8850.75
323.978210449,8783.8
324.276062012,8722.85
324.573852539,8671.025
324.871643066,8584.25
325.169464111,8536.8
325.467224121,8454.15
325.764984131,8387.6
326.062744141,8309.85
326.360473633,8202.05
326.658203125,8164.075
326.955871582,8085.95
327.253570557,8014.95
327.551239014,7961.3
327.848907471,7882.325
328.146514893,7799.15
328.444152832,7723.75
328.741790771,7674.4
329.039367676,7626.325
329.336914062,7547.625
329.634521484,7450.5
329.932067871,7414.6
330.229553223,7353.15
330.527160645,7288.175
330.824615479,7217.5
331.12210083,7149.525
331.419586182,7010.9
331.717041016,6961.5
332.014465332,6861.275
332.311920166,6835.6
332.609313965,6762.55
332.906707764,6755.2
333.204101562,6752.025
333.501495361,6744.85
333.798828125,6807.0
334.096160889,6861.275
334.39352417,6911.975
334.690795898,6949.2
334.988098145,7007.15
335.285400391,7067.525
335.582641602,7074.275
335.879882812,7123.275
336.177124023,7145.05
336.474334717,7210.725
336.77154541,7206.175
337.068725586,7238.425
337.365905762,7237.55
337.66305542,7251.975
337.960205078,7273.075
338.257324219,7306.1
338.554443359,7291.1
338.8515625,7326.45
339.148590088,7316.5
339.445648193,7308.425
339.742736816,7288.325
340.039764404,7278.35
340.336761475,7226.45
340.63381958,7162.5
340.930755615,7115.525
341.227722168,7055.6
341.524688721,6952.825
341.821624756,6929.5
342.118560791,6921.325
342.415496826,7037.075
342.712402344,7166.075
343.009246826,7348.8
343.306121826,7440.9
343.602966309,7482.975
343.899810791,7605.775
344.196624756,7681.85
344.493438721,7705.6
344.79019165,7758.5
345.086975098,7780.925
345.383758545,7877.475
345.680480957,7809.9
345.977203369,7857.925
346.273956299,7910.725
346.570617676,7879.15
346.86730957,7913.025
347.163970947,7861.475
347.460601807,7914.625
347.757232666,7924.05
348.053894043,7898.525
348.350463867,7818.725
348.647064209,7792.275
348.943634033,7782.65
349.24017334,7780.525
349.536712646,7698.925
349.833251953,7720.175
350.129760742,7685.6
350.426208496,7671.175
350.722747803,7613.0
351.019195557,7608.225
351.315612793,7537.975
351.612060547,7512.575
351.908508301,7453.275
352.204864502,7393.45
352.501281738,7330.85
352.797637939,7231.1
353.093963623,7141.0
353.390319824,7086.2
353.686645508,6970.5
353.982940674,6881.925
354.27923584,6843.425
354.575531006,6770.6
354.871765137,6759.8
355.167999268,6716.075
355.464233398,6703.725
355.760437012,6725.5
356.056640625,6709.9
356.352813721,6717.325
356.648956299,6685.475
356.945129395,6717.25
357.241271973,6669.125
357.537384033,6690.825
357.833496094,6632.25
358.129577637,6604.125
358.425628662,6578.15
358.721679688,6518.925
359.017730713,6483.725
359.313720703,6416.125
359.609710693,6377.7
359.905761719,6299.2
360.201721191,6261.75
360.497650146,6178.875
360.793609619,6137.375
361.089538574,6037.5
361.385437012,5967.075
361.681365967,5914.95
361.977233887,5850.675
362.273071289,5775.05
362.568908691,5625.525
362.864746094,5512.05
363.160552979,5366.225
363.456359863,5172.15
363.752166748,5034.75
364.047912598,4920.1
364.343658447,4876.95
364.639434814,4911.35
364.935119629,4936.775
365.230834961,4993.925
365.526550293,5011.05
365.822174072,4988.425
366.117858887,5007.125
366.413482666,5038.625
366.709075928,5054.675
367.004730225,4954.425
367.300292969,4912.475
367.595855713,4960.7
367.891448975,4838.75
368.186981201,4727.575
368.482513428,4680.475
368.778015137,4666.025
369.073547363,4581.725
369.36895752,4606.925
369.664428711,4498.675
369.95993042,4379.225
370.255310059,4314.15
370.550720215,4280.925
370.846160889,4224.4
371.14151001,4179.75
371.436859131,4151.175
371.73223877,4125.375
372.027557373,4074.35
372.322875977,4015.25
372.618164062,3966.7
372.913482666,3930.375
373.208709717,3898.15
373.503967285,3829.75
373.799194336,3776.8
374.094421387,3780.575
374.389648438,3742.875
374.684844971,3716.15
374.979980469,3767.925
375.275146484,3765.025
375.570281982,3762.4
375.865386963,3754.8
376.160522461,3688.0
376.455596924,3691.35
376.750640869,3759.625
377.045715332,3770.0
377.340759277,3794.275
377.635772705,3851.75
377.93081665,3872.15
378.225769043,3942.425
378.520751953,3972.7
378.815734863,3919.025
379.110656738,4080.975
379.405548096,4205.375
379.700500488,4073.5
379.995391846,3842.05
380.290252686,3886.675
380.585083008,3983.425
380.879974365,4016.025
381.17477417,3921.1
381.469543457,3848.4
381.764404297,3837.4
382.059143066,3873.55
382.353912354,3936.225
382.648651123,4000.475
382.943389893,3970.6
383.238067627,3837.725
383.532775879,3799.85
383.827484131,3754.275
384.12210083,3733.925
384.416778564,3705.55
384.711425781,3606.05
385.006011963,3622.0
385.300628662,3619.275
385.595184326,3671.5
385.88973999,3752.775
386.184295654,3820.525
386.478820801,3899.475
386.77331543,3979.0
387.067840576,4068.075
387.362335205,4131.725
387.656768799,4202.775
387.951202393,4216.125
388.245635986,4277.325
388.540039062,4335.05
388.834472656,4382.725
389.128875732,4293.375
389.423187256,4086.55
389.717559814,4047.2
390.011871338,4141.775
390.306182861,4150.425
390.600463867,4172.35
390.894775391,4231.6
391.189025879,4242.525
391.48324585,4252.725
391.777526855,4285.925
392.071685791,4465.05
392.365875244,4548.225
392.660064697,4594.35
392.95425415,4886.725
393.248382568,4866.325
393.542510986,4465.8
393.836608887,4295.65
394.130706787,4306.575
394.424804688,4230.95
394.71887207,4368.25
395.012878418,4352.425
395.306915283,4243.8
395.600921631,4197.1
395.894927979,4149.75
396.188903809,4218.825
396.482879639,4212.95
396.776794434,4390.925
397.070739746,4352.05
397.364654541,4363.525
397.658538818,4689.35
397.952423096,4748.625
398.246307373,4697.825
398.540100098,5149.975
398.833953857,5053.3
399.127746582,4610.525
399.421508789,4640.375
399.715301514,4605.3
400.009063721,4517.3
400.30279541,4380.625
400.596496582,4335.2
400.890258789,4479.05
401.183929443,4533.05
401.47756958,4459.3
401.771240234,4242.1
402.064880371,4268.6
402.35848999,4291.925
402.652130127,4226.075
402.945678711,4292.1
403.239257812,4230.525
403.532775879,4186.125
403.82635498,4249.175
404.119842529,4170.725
404.413360596,4166.425
404.706848145,4215.15
405.000274658,4167.275
405.293762207,4229.925
405.587188721,4275.25
405.880584717,4137.4
406.17401123,3984.15
406.467407227,3807.475
406.760742188,3819.4
407.054107666,3865.95
407.347442627,3804.15
407.640716553,3786.475
407.934051514,3853.4
408.227325439,3916.3
408.520568848,4099.9
408.813842773,4187.125
409.107086182,4024.425
409.400238037,3979.15
409.693450928,3932.1
409.986633301,4029.65
410.279754639,3952.825
410.572875977,3699.95
410.86605835,3660.1
411.159118652,3666.325
411.452209473,3698.95
411.745330811,3536.15
412.038360596,3490.3
412.331390381,3534.025
412.624420166,3577.175
412.917388916,3495.625
413.210388184,3330.9
413.503387451,3327.1
413.796295166,3234.475
414.089233398,3083.975
414.382141113,2999.75
414.675048828,2995.95
414.967926025,3025.925
415.260803223,2985.375
415.55368042,3016.025
415.846466064,2984.6
416.139282227,3068.975
416.432098389,3169.575
416.724853516,3167.125
417.017608643,3131.2
417.31036377,3141.9
417.603088379,3265.6
417.895782471,3235.0
418.188476562,3217.95
418.481140137,3271.825
418.773803711,3327.525
419.066436768,3322.725
419.359039307,3387.675
419.651641846,3384.675
419.944244385,3403.825
420.236816406,3357.55
420.529327393,3574.725
420.821899414,3650.85
421.114379883,3578.725
421.406860352,3830.2
421.699371338,4049.975
421.991821289,4017.825
422.284240723,3820.075
422.576721191,3694.5
422.869110107,3598.4
423.161468506,3541.825
423.453857422,3577.775
423.74621582,3471.225
424.038543701,3340.425
424.330871582,3322.4
424.623168945,3266.2
424.915435791,3393.425
425.207702637,3366.375
425.499969482,3320.125
425.792205811,3268.0
426.084411621,3022.15
426.376617432,3114.55
426.668762207,3181.175
426.9609375,3062.65
427.253082275,3185.825
427.545196533,3572.175
427.837310791,3314.375
428.129425049,3043.925
428.421447754,3256.65
428.713531494,3250.975
429.005554199,3249.075
429.297576904,3277.875
429.589599609,3681.95
429.881561279,4009.325
430.173522949,3783.475
430.465484619,3759.7
430.757415771,3834.075
431.049316406,3603.675
431.341186523,3377.35
431.633117676,3275.675
431.924957275,2989.625
432.21673584,2900.925
432.508636475,3032.675
432.800415039,3059.775
433.092163086,2961.425
433.383972168,2942.2
433.675689697,3641.375
433.967437744,4134.45
434.259155273,3173.325
434.550872803,2882.4
434.842498779,2923.375
435.134185791,3058.45
435.425842285,3095.45
435.717437744,3003.175
436.009063721,2825.125
436.30065918,2966.15
436.592224121,3312.2
436.883758545,3114.95
437.175323486,2855.5
437.466827393,2828.0
437.758331299,2854.45
438.049804688,2868.65
438.341247559,2947.8
438.63269043,3036.075
438.924163818,3008.95
439.215515137,2971.3
439.50692749,2873.95
439.798309326,2889.275
440.089660645,2900.1
440.380981445,2817.775
440.672332764,2812.225
440.963623047,3074.875
441.254882812,3537.425
441.546173096,3722.675
441.837402344,3473.0
442.128631592,3292.75
442.41986084,3266.825
442.711029053,3142.95
443.002197266,3208.925
443.293365479,3396.425
443.584503174,3530.3
443.875610352,3511.2
444.166717529,3242.65
444.457794189,3300.05
444.748840332,3294.3
445.039916992,3226.325
445.330932617,3329.25
445.621948242,3179.65
445.912963867,2975.625
446.203918457,3217.775
446.494812012,3452.7
446.785827637,3233.725
447.076721191,3062.35
447.367584229,3042.025
447.658447266,3021.2
447.949371338,3071.0
448.24017334,2944.875
448.530975342,2881.425
448.821838379,3059.25
449.112579346,3132.4
449.40335083,3048.725
449.694152832,3093.0
449.984863281,3092.9
450.27557373,3026.825
450.56628418,3104.375
450.856933594,3123.0
451.147583008,2963.55
451.438262939,2854.425
451.728881836,3062.4
452.019470215,3145.85
452.310089111,2946.5
452.600646973,2967.575
452.891174316,3037.9
453.181732178,2847.05
453.472229004,2729.425
453.762695312,2827.025
454.053222656,2866.075
454.343658447,2727.55
454.634063721,2657.85
454.924530029,2848.925
455.214935303,2991.7
455.505279541,3047.125
455.795715332,2927.65
456.086029053,2708.6
456.376312256,2691.8
456.666687012,2730.7
456.956939697,2846.925
457.247192383,2839.6
457.537445068,2911.475
457.827728271,3095.5
458.117919922,3032.65
458.408081055,2964.35
458.698303223,3144.375
458.988433838,3090.625
459.278564453,2895.75
459.568725586,3185.8
459.858825684,3300.65
460.148864746,2971.475
460.438995361,2935.675
460.729034424,2998.625
461.019042969,3005.825
461.309082031,3206.05
461.599060059,3090.95
461.889007568,2625.725
462.179016113,2436.275
462.468933105,2677.85
462.75881958,2802.525
463.048736572,2542.85
463.338592529,2809.275
463.628448486,3176.35
463.918365479,2895.525
464.2081604,3051.925
464.497924805,3023.35
464.787780762,3145.125
465.077514648,3452.975
465.367218018,3065.225
465.657012939,3271.45
465.946685791,3695.875
466.236358643,3290.875
466.526092529,2744.475
466.815734863,2729.375
467.105316162,2650.425
467.394927979,2697.4
467.684570312,2558.225
467.974121094,2653.825
468.263671875,2758.6
468.553222656,2528.375
468.842773438,2414.6
469.132232666,2319.7
469.42175293,2335.925
469.711212158,2314.325
470.000640869,2186.525
470.290100098,2246.225
470.579498291,2292.4
470.868835449,2285.6
471.158294678,2243.3
471.447601318,2231.5
471.736907959,2297.725
472.026275635,2369.025
472.315551758,2350.4
472.604797363,2349.2
472.894104004,2482.025
473.183319092,2597.4
473.47253418,2581.05
473.761779785,2591.475
474.05090332,2511.1
474.340087891,2468.2
474.629241943,2393.1
474.918365479,2580.7
475.207427979,2849.825
475.496551514,2891.65
475.785614014,2616.9
476.074645996,2404.325
476.363708496,2506.075
476.652679443,2658.75
476.941650391,2463.975
477.230682373,2304.125
477.519622803,2314.175
477.808502197,2473.0
478.097412109,2756.875
478.386352539,2698.225
478.675201416,2420.4
478.964050293,2314.025
479.25289917,2517.35
479.541717529,2567.9
479.830474854,2403.5
480.11932373,2773.45
480.408050537,2953.6
480.696777344,2563.95
480.985534668,2430.475
481.274200439,2535.85
481.562866211,2799.325
481.851593018,2816.75
482.140197754,2766.75
482.428833008,2590.1
482.717468262,2374.175
483.006011963,2385.3
483.294586182,2535.9
483.5831604,2583.15
483.871673584,2439.025
484.16015625,2594.275
484.448699951,2853.45
484.7371521,2884.45
485.02557373,2889.8
485.314025879,2606.7
485.602416992,4043.575
485.890777588,14265.7
486.179199219,12819.125
486.467559814,3446.15
486.755859375,2505.75
487.044219971,2917.9
487.332519531,3124.975
487.620758057,2675.35
487.908966064,2409.675
488.197265625,2185.375
488.485473633,2087.95
488.773651123,2204.025
489.061859131,2207.125
489.350006104,2156.05
489.638122559,2095.2
489.926300049,2116.275
490.214355469,2062.875
490.502441406,2009.125
490.790527344,1930.1
491.078552246,2151.425
491.366546631,2150.275
491.654602051,1899.8
491.942565918,1985.325
492.230499268,2028.55
492.518493652,1994.975
492.806396484,2015.725
493.094268799,1925.3
493.382202148,1980.825
493.670074463,2097.625
493.957885742,1936.65
494.245727539,1937.125
494.533508301,2127.25
494.821289062,1996.6
495.109100342,1829.45
495.396850586,1775.95
495.684539795,1728.3
495.972290039,1962.425
496.25994873,2344.3
496.547607422,2359.825
496.835296631,2155.825
497.122894287,1794.775
497.410522461,1720.75
497.6980896,1716.95
497.985687256,1677.75
498.273223877,1796.45
498.560760498,1892.025
498.848266602,1901.075
499.135772705,1877.9
499.423217773,1937.7
499.710693359,2048.2
499.998138428,1971.7
500.285522461,1795.7
500.572937012,1704.55
500.860290527,1775.375
501.147644043,1879.4
501.434997559,2148.625
501.722290039,1995.7
502.00958252,1725.1
502.296875,2029.175
502.584106445,2008.0
502.871337891,1814.625
503.158599854,1896.7
503.445770264,2002.275
503.732910156,1959.825
504.020141602,1752.775
504.307220459,1721.725
504.594329834,1769.05
504.881469727,1697.925
505.168518066,1791.275
505.455535889,1859.55
505.742614746,1722.475
506.029632568,1652.125
506.316589355,1865.7
506.603637695,1947.05
506.890563965,1743.45
507.177459717,1547.375
507.464385986,1453.45
507.751312256,1713.925
508.038146973,1813.825
508.325012207,1661.0
508.611877441,1725.15
508.898681641,1733.65
509.185424805,1548.275
509.472259521,1504.925
509.759002686,1607.275
510.045715332,1637.95
510.332458496,1577.875
510.619140625,1652.35
510.905761719,1554.075
511.192504883,1536.4
511.479095459,1592.15
511.765686035,1530.6
512.052307129,1441.35
512.338928223,1381.65
512.625427246,1443.95
512.91204834,1514.025
513.198486328,1486.975
513.484985352,1452.275
513.77142334,1362.25
514.057922363,1420.325
514.344299316,1409.55
514.63079834,1363.3
514.917175293,1351.675
515.203552246,1253.525
515.489868164,1221.625
515.776245117,1366.675
516.0625,1408.875
516.348815918,1299.725
516.635070801,1346.95
516.921325684,1410.175
517.207580566,1345.425
517.493774414,1232.675
517.779968262,1240.05
518.066101074,1279.975
518.352294922,1226.95
518.638366699,1237.7
518.924499512,1332.65
519.210632324,1417.975
519.496643066,1370.775
519.782714844,1262.375
520.068786621,1218.225
520.354736328,1173.5
520.640686035,1133.475
520.926757812,1173.85
521.212646484,1262.85
521.498535156,1277.825
521.784484863,1227.675
522.0703125,1140.95
522.356262207,1165.3
522.642089844,1241.5
522.927856445,1240.675
523.213684082,1229.55
523.499511719,1229.65
523.78527832,1266.075
524.070983887,1330.325
524.356750488,1298.5
524.64239502,1256.375
524.928039551,1255.9
525.213806152,1264.475
525.499389648,1241.325
525.784973145,1288.375
526.070617676,1337.425
526.356140137,1311.0
526.641723633,1299.825
526.927307129,1381.1
527.212768555,1390.075
527.498291016,1357.1
527.783752441,1364.9
528.069213867,1338.075
528.354675293,1367.9
528.640014648,1550.575
528.925476074,1638.875
529.21081543,1551.075
529.496154785,1518.4
529.781555176,1482.2
530.066833496,1496.8
530.352050781,1520.225
530.637390137,1499.4
530.922607422,1492.15
531.207824707,1500.375
531.493041992,1473.625
531.778198242,1567.85
532.063354492,1533.375
532.348571777,1465.5
532.633666992,1501.675
532.918762207,1580.2
533.203857422,1683.975
533.488891602,1711.725
533.773925781,1651.825
534.059020996,1629.55
534.343933105,1658.75
534.628967285,1623.35
534.91394043,1640.225
535.198852539,1670.15
535.483703613,1626.425
535.768676758,1558.225
536.053527832,1572.675
536.338317871,1523.075
536.62322998,1452.625
536.90802002,1422.25
537.192810059,1453.7
537.477539062,1534.7
537.762329102,1575.175
538.047058105,1626.85
538.331726074,1671.35
538.616455078,1654.275
538.901123047,1626.175
539.18572998,1668.375
539.470397949,1684.625
539.755004883,1661.2
540.039550781,1634.375
540.32409668,1583.975
540.608703613,1619.225
540.893188477,1728.375
541.17767334,1761.525
541.462158203,1757.75
541.746643066,1696.025
542.031066895,1748.9
542.315429688,1792.875
542.59979248,1792.05
542.884216309,1761.85
543.168579102,1756.925
543.452941895,1774.175
543.737243652,1825.125
544.021484375,1881.475
544.305725098,1881.3
544.590026855,1841.45
544.874267578,1860.35
545.158447266,1945.825
545.442626953,1843.175
545.726806641,1722.05
546.010925293,1763.125
546.29510498,1806.75
546.579162598,1785.2
546.863220215,1831.725
547.147277832,1903.4
547.431335449,2005.25
547.715332031,2071.725
547.999328613,2196.75
548.283325195,2223.475
548.567260742,2032.025
548.851135254,2015.975
549.135070801,1975.3
549.419006348,1869.35
549.702819824,1982.325
549.986755371,2067.825
550.270507812,2013.9
550.554321289,2072.675
550.83807373,2097.375
551.121826172,2016.575
551.405517578,2063.875
551.689331055,2181.925
551.973022461,2448.35
552.256652832,2532.6
552.540344238,2408.925
552.823974609,2396.75
553.107543945,2361.2
553.391174316,2433.55
553.674743652,2501.45
553.958251953,2516.05
554.241821289,2520.7
554.525268555,2447.075
554.808776855,2440.95
555.092285156,2664.175
555.375671387,2765.575
555.659057617,2744.825
555.942504883,2781.05
556.225891113,2814.775
556.509216309,2779.35
556.792541504,2659.05
557.075866699,2772.0
557.359130859,2800.775
557.64239502,2809.3
557.92565918,2891.75
558.208862305,2869.975
558.49206543,2786.475
558.77532959,2819.7
559.058410645,2866.6
559.341552734,2863.65
559.624694824,2918.675
559.907775879,2995.4
560.190856934,3137.7
560.473937988,3131.8
560.756896973,3185.375
561.039978027,3224.65
561.322937012,3154.975
561.605895996,3160.75
561.88885498,3133.525
562.171813965,3124.375
562.454650879,3108.4
562.737548828,3149.125
563.020446777,3237.95
563.303283691,3249.025
563.58605957,3295.525
563.868896484,3318.6
564.151672363,3375.8
564.434387207,3399.45
564.717163086,3378.025
564.99987793,3422.0
565.282531738,3491.575
565.565185547,3417.325
565.847839355,3437.275
566.130432129,3561.8
566.413085938,3530.35
566.695678711,3551.575
566.978149414,3686.875
567.260681152,3856.7
567.543273926,3944.425
567.825744629,3813.475
568.108154297,3855.925
568.390686035,4001.7
568.673095703,4150.6
568.955505371,4196.65
569.237854004,4253.425
569.520202637,4562.325
569.802490234,4795.65
570.084838867,4776.25
570.367126465,4575.325
570.649414062,4596.075
570.93170166,4989.675
571.213928223,5095.95
571.496154785,4813.075
571.778381348,5085.8
572.06048584,5384.475
572.342590332,4847.625
572.624755859,4432.725
572.906860352,4518.9
573.188903809,5314.275
573.470947266,5575.25
573.752990723,5304.05
574.03503418,5426.65
574.317016602,5882.225
574.598937988,5632.675
574.88092041,5480.025
575.162841797,5695.525
575.444763184,5253.325
575.726623535,4960.475
576.008483887,4991.85
576.290344238,5477.575
576.572143555,5700.25
576.853881836,5777.175
577.135681152,5659.075
577.417419434,5708.325
577.699157715,6727.1
577.980895996,6905.625
578.262573242,6190.625
578.544128418,5620.45
578.825866699,5558.575
579.107421875,5168.825
579.388977051,5389.25
579.670593262,5852.925
579.952148438,5667.75
580.233642578,5754.775
580.515197754,5907.825
580.796691895,5550.425
581.078125,5746.825
581.359619141,7474.05
581.640991211,7595.2
581.922363281,6530.35
582.203796387,6595.925
582.485107422,6171.05
582.766418457,5736.375
583.047790527,5579.825
583.329040527,5424.75
583.610290527,5273.225
583.891540527,5412.725
584.172790527,5763.15
584.453918457,5794.4
584.735107422,5851.4
585.016235352,6377.3
585.297363281,6339.45
585.578552246,6070.55
585.859619141,6039.1
586.140625,5771.725
586.421630859,5601.825
586.702697754,5663.75
586.983642578,5927.825
587.264648438,6115.65
587.545654297,6035.575
587.826477051,5972.075
588.107421875,5769.325
588.388305664,5796.925
588.669189453,5896.8
588.950012207,5726.375
589.230834961,5615.15
589.511657715,5716.85
589.792358398,5842.6
590.073120117,5837.95
590.353881836,5813.5
590.63458252,5822.425
590.915283203,5783.275
591.195922852,5763.2
591.4765625,5817.8
591.757202148,5856.55
592.037780762,5856.85
592.31829834,5861.175
592.598937988,6095.275
592.879394531,6297.7
593.159912109,6187.5
593.440429688,6098.125
593.720825195,6090.325
594.001281738,6045.95
594.281677246,5969.775
594.562072754,5998.95
594.842407227,6116.525
595.122802734,6137.7
595.403137207,6115.575
595.683410645,6091.35
595.963623047,6070.075
596.243896484,6026.25
596.524169922,6024.0
596.804382324,6037.425
597.084533691,6078.425
597.364746094,6111.2
597.644836426,6148.425
597.924987793,6112.025
598.205078125,6077.65
598.485107422,6101.525
598.765197754,6230.975
599.045227051,6284.7
599.325195312,6183.625
599.605224609,6142.6
599.885192871,6174.175
600.165100098,6248.3
600.445007324,6195.8
600.724914551,6169.275
601.004760742,6193.925
601.284667969,6235.175
601.56451416,6191.725
601.844238281,6185.375
602.124084473,6193.275
602.403808594,6191.325
602.683532715,6230.4
602.963256836,6219.35
603.242919922,6248.675
603.522583008,6289.4
603.802246094,6256.8
604.081848145,6235.15
604.36138916,6207.9
604.641052246,6241.55
604.920532227,6198.35
605.200073242,6242.4
605.479614258,6267.25
605.759094238,6326.975
606.038574219,6277.975
606.317932129,6249.475
606.597412109,6241.4
606.87677002,6246.7
607.15612793,6291.725
607.435546875,6310.175
607.714782715,6284.7
607.99407959,6269.5
608.273376465,6251.3
608.552612305,6269.2
608.831848145,6270.875
609.111083984,6274.225
609.390258789,6249.05
609.669433594,6237.45
609.948608398,6321.2
610.227722168,6290.875
610.506713867,6233.8
610.785888672,6241.9
611.064880371,6242.15
611.34387207,6246.85
611.622924805,6273.95
611.901916504,6282.275
612.180847168,6204.075
612.459777832,6184.675
612.738647461,6204.875
613.01751709,6169.475
613.296447754,6093.4
613.575317383,6085.775
613.854064941,6047.35
614.132873535,5927.375
614.411621094,5855.175
614.690368652,5825.0
614.969177246,5762.075
615.247802734,5697.375
615.526489258,5642.85
615.805175781,5516.225
616.08380127,5388.125
616.362365723,5297.225
616.640991211,5258.0
616.919555664,5180.55
617.198059082,5323.575
617.4765625,5630.65
617.755126953,5789.2
618.033569336,5808.375
618.311950684,5827.325
618.590454102,5811.975
618.868774414,5781.3
619.147155762,5796.95
619.425598145,5745.675
619.703857422,5785.65
619.982177734,5801.875
620.260498047,5776.625
620.538757324,5764.0
620.816955566,5732.45
621.095214844,5676.2
621.373413086,5693.15
621.651550293,5768.7
621.929748535,5794.9
622.207824707,5760.5
622.485900879,5789.275
622.764038086,5781.125
623.042053223,5826.325
623.320007324,5852.1
623.598083496,5848.8
623.876037598,5827.1
624.153991699,5856.45
624.432006836,5886.225
624.709838867,5891.225
624.987731934,5882.575
625.265563965,5881.775
625.543395996,5869.9
625.821228027,5952.25
626.098999023,5941.425
626.376831055,6011.4
626.654541016,6026.15
626.932250977,6043.975
627.209960938,6102.725
627.487670898,6131.2
627.765319824,6137.35
628.04296875,6143.55
628.320495605,6167.8
628.598083496,6142.875
628.875671387,6195.925
629.153259277,6236.575
629.430725098,6317.775
629.708251953,6269.325
629.985656738,6311.425
630.263122559,6315.2
630.540588379,6355.025
630.817932129,6406.575
631.095275879,6421.425
631.372680664,6473.7
631.649963379,6517.475
631.927246094,6574.125
632.204589844,6616.85
632.481811523,6654.6
632.759033203,6745.05
633.036254883,6774.85
633.313415527,6875.525
633.590576172,6933.5
633.867736816,7055.125
634.144836426,7129.475
634.421875,7183.1
634.698913574,7234.175
634.976013184,7284.575
635.252990723,7371.775
635.529968262,7405.2
635.807006836,7502.4
636.08392334,7458.6
636.360839844,7351.375
636.637756348,7263.1
636.914611816,7237.7
637.191467285,7178.975
637.468261719,7293.475
637.745056152,7267.95
638.021789551,7275.15
638.298583984,7295.05
638.575317383,7344.825
638.851989746,7332.975
639.12878418,7353.3
639.405395508,7355.825
639.682006836,7392.6
639.958618164,7377.825
640.235229492,7374.9
640.511779785,7423.2
640.788330078,7360.5
641.064880371,7382.35
641.341308594,7364.225
641.617797852,7368.125
641.894226074,7394.975
642.170654297,7402.275
642.44708252,7386.225
642.723388672,7395.2
642.999755859,7380.75
643.276123047,7398.4
643.552429199,7382.775
643.828674316,7386.6
644.104919434,7358.275
644.381164551,7342.075
644.657348633,7354.925
644.933532715,7341.125
645.209716797,7365.55
645.485839844,7350.05
645.761901855,7348.425
646.038024902,7334.775
646.314086914,7391.475
646.590087891,7353.35
646.866149902,7375.175
647.142150879,7311.0
647.41809082,7317.475
647.694030762,7322.975
647.969970703,7309.675
648.245788574,7356.4
648.521728516,7313.4
648.797546387,7312.475
649.073303223,7344.325
649.349182129,7299.175
649.624938965,7306.975
649.900634766,7316.05
650.176391602,7314.975
650.452087402,7283.65
650.727783203,7281.475
651.003479004,7309.0
651.279052734,7299.225
651.554626465,7281.325
651.83026123,7286.75
652.105773926,7311.525
652.381286621,7261.025
652.656860352,7278.175
652.932312012,7271.8
653.207763672,7287.225
653.483215332,7317.025
653.758605957,7310.85
654.033935547,7314.875
654.309326172,7311.025
654.584716797,7356.075
654.859985352,7355.75
655.135253906,7366.875
655.410583496,7392.075
655.685791016,8491.9
655.9609375,13170.275
656.236206055,12886.6
656.511291504,8617.475
656.786437988,7553.625
657.061645508,7435.575
657.336669922,7393.425
657.611694336,7464.25
657.886779785,7498.35
658.161804199,7505.4
658.436828613,7470.45
658.711791992,7504.025
658.986755371,7476.925
659.261657715,7510.35
659.536621094,7507.75
659.811401367,7535.85
660.086303711,7548.35
660.36114502,7561.05
660.635864258,7539.175
660.910644531,7586.225
661.185424805,7552.75
661.460205078,7573.95
661.734863281,7601.15
662.009521484,7585.95
662.284179688,7610.775
662.558776855,7674.625
662.833435059,7714.55
663.108032227,7688.025
663.382568359,7709.8
663.657043457,7762.475
663.93157959,7757.975
664.206054688,7734.225
664.48046875,7813.8
664.755004883,7824.025
665.02935791,7836.125
665.303710938,7858.85
665.578125,7898.225
665.852416992,7870.875
666.126708984,7890.95
666.401062012,7909.55
666.675292969,7957.725
666.949462891,7980.125
667.223754883,7968.4
667.497924805,8018.625
667.772094727,8008.175
668.046264648,8005.2
668.3203125,8074.175
668.594421387,8080.175
668.868469238,8102.35
669.14251709,8097.7
669.416503906,8120.525
669.690551758,8128.175
669.964477539,8145.2
670.23840332,8109.525
670.512329102,8152.525
670.786254883,8142.65
671.060058594,8240.3
671.333984375,8219.95
671.607788086,8247.0
671.881530762,8234.3
672.155334473,8285.8
672.429077148,8308.875
672.702758789,8336.3
672.97644043,8287.325
673.25012207,8293.65
673.523742676,8313.6
673.797302246,8319.3
674.070922852,8419.25
674.344482422,8432.9
674.618041992,8422.05
674.891601562,8411.9
675.165100098,8423.075
675.438476562,8421.1
675.711975098,8440.025
675.985412598,8456.95
676.258789062,8424.0
676.532165527,8502.0
676.805480957,8486.9
677.078796387,8502.925
677.352111816,8530.525
677.625366211,8518.15
677.898620605,8494.7
678.171875,8579.75
678.445007324,8555.975
678.718200684,8603.75
678.991394043,8586.025
679.264404297,8594.325
679.537536621,8617.6
679.81060791,8642.325
680.083679199,8644.9
680.356689453,8691.05
680.629699707,8666.8
680.902648926,8637.85
681.175598145,8740.875
681.448547363,8764.0
681.721435547,8751.275
681.99420166,8726.025
682.267150879,8717.6
682.539916992,8791.525
682.812744141,8741.15
683.085510254,8759.675
683.358215332,8774.925
683.63092041,8752.5
683.903625488,8775.625
684.176330566,8772.625
684.448913574,8738.025
684.721557617,8749.5
684.99420166,8820.875
685.266662598,8824.25
685.539245605,8837.5
685.811767578,8892.05
686.084289551,8896.525
686.356689453,8941.85
686.629150391,8964.675
686.901550293,8957.7
687.17401123,8972.975
687.446350098,9035.2
687.718688965,9017.225
687.990966797,9051.6
688.263305664,9093.7
688.535522461,9059.1
688.807739258,9065.975
689.079956055,9137.425
689.352172852,9116.75
689.624328613,9117.05
689.896484375,9164.1
690.168518066,9162.9
690.440612793,9189.475
690.71270752,9233.975
690.984741211,9233.55
691.256713867,9279.275
691.528747559,9264.2
691.800720215,9250.925
692.072631836,9302.775
692.344543457,9325.8
692.616394043,9351.825
692.888244629,9360.025
693.160095215,9412.025
693.431945801,9426.425
693.703674316,9406.325
693.975463867,9376.075
694.247131348,9427.5
694.518859863,9420.525
694.790588379,9477.075
695.062255859,9479.475
695.33380127,9478.55
695.60546875,9489.375
695.87701416,9504.475
696.148498535,9527.5
696.42010498,9570.375
696.691589355,9595.125
696.96307373,9637.4
697.234558105,9669.55
697.50592041,9652.425
697.777282715,9663.025
698.048706055,9664.4
698.320068359,9719.35
698.591308594,9691.55
698.862670898,9698.9
699.133972168,9769.225
699.405151367,9731.45
699.676391602,9776.0
699.947570801,9751.65
700.21875,9769.275
700.489868164,9800.5
700.761047363,9793.35
701.032104492,9858.875
701.303100586,9798.475
701.57421875,9902.65
701.845214844,9852.7
702.116149902,9913.3
702.387207031,9882.25
702.65814209,9899.45
702.928955078,9940.35
703.199951172,9901.725
703.47076416,9888.25
703.741577148,9900.875
704.012451172,9977.1
704.28314209,9957.175
704.553955078,9959.725
704.824707031,9990.6
705.095397949,10020.575
705.366027832,10044.7
705.63671875,10055.65
705.907348633,10007.825
706.17791748,10035.575
706.448486328,10060.85
706.719055176,10109.75
706.989562988,10135.75
707.260131836,10152.875
707.530517578,10146.4
707.800964355,10161.075
708.071411133,10111.575
708.341796875,10142.35
708.612182617,10121.05
708.882446289,10144.3
709.152893066,10138.275
709.423156738,10169.0
709.693359375,10126.725
709.963623047,10183.225
710.233825684,10197.525
710.503967285,10145.7
710.774169922,10177.25
711.044311523,10191.5
711.31439209,10162.075
711.584533691,10206.9
711.854553223,10211.6
712.124572754,10210.575
712.39465332,10178.65
712.664611816,10216.425
712.934509277,10303.375
713.204467773,10241.575
713.474365234,10271.6
713.74420166,10247.075
714.014099121,10283.1
714.283874512,10269.95
714.553710938,10308.625
714.823486328,10315.875
715.093200684,10285.475
715.362915039,10333.35
715.632629395,10286.475
715.902282715,10254.05
716.171875,10272.525
716.441589355,10284.375
716.711181641,10256.775
716.980712891,10265.825
717.250244141,10279.175
717.519775391,10310.05
717.78918457,10296.75
718.058654785,10378.75
718.328125,10395.9
718.597473145,10349.575
718.866882324,10354.65
719.136230469,10366.975
719.405578613,10381.475
719.674865723,10423.4
719.944152832,10360.475
720.213439941,10362.45
720.48260498,10415.55
720.75177002,10407.575
721.020996094,10424.825
721.290100098,10401.675
721.559204102,10380.45
721.828308105,10430.575
722.097351074,10413.325
722.366455078,10365.1
722.635437012,10353.375
722.904418945,10341.8
723.173400879,10385.9
723.442321777,10421.775
723.711181641,10376.725
723.980102539,10437.425
724.248962402,10410.85
724.51776123,10400.875
724.786560059,10418.6
725.055358887,10429.375
725.324035645,10383.65
725.592834473,10423.5
725.86151123,10401.95
726.130187988,10417.875
726.398803711,10397.3
726.667419434,10390.6
726.935974121,10377.825
727.204528809,10353.675
727.473083496,10388.625
727.741638184,10352.55
728.010070801,10311.55
728.278564453,10317.65
728.546936035,10299.8
728.815368652,10239.675
729.08380127,10163.45
729.352111816,10136.65
729.620361328,10037.425
729.88873291,10121.475
730.156982422,10206.375
730.425231934,10183.5
730.693481445,10176.025
730.961669922,10234.275
731.229797363,10283.025
731.49798584,10339.0
731.766113281,10385.025
732.034118652,10447.625
732.302246094,10504.35
732.570251465,10549.3
732.838256836,10558.65
733.106262207,10675.875
733.374145508,10695.975
733.642089844,10792.875
733.909973145,10802.675
734.177856445,10923.275
734.445678711,11021.8
734.713562012,11127.375
734.981323242,11112.35
735.249084473,11198.85
735.516845703,11389.65
735.784545898,11439.275
736.052185059,11486.425
736.319885254,11597.025
736.587524414,11630.15
736.855102539,11710.75
737.122619629,11884.325
737.390197754,11914.625
737.657714844,12005.75
737.925170898,12059.75
738.192749023,12166.25
738.460144043,12235.325
738.727539062,12297.025
738.994995117,12449.325
739.262329102,12525.475
739.529663086,12670.775
739.79699707,12737.4
740.06427002,12777.0
740.331481934,12838.775
740.598754883,12913.4
740.865905762,12928.875
741.133056641,13154.4
741.40032959,13144.025
741.667358398,13228.525
741.934448242,13284.475
742.201599121,13300.725
742.468566895,13467.175
742.735534668,13472.525
743.002563477,13480.65
743.26953125,13492.425
743.536437988,13560.4
743.803405762,13709.775
744.0703125,13613.925
744.337097168,13788.825
744.604003906,13712.025
744.870727539,13796.475
745.137512207,13853.5
745.40423584,13866.95
745.670959473,13835.675
745.93762207,13869.875
746.204284668,13881.05
746.470947266,13906.05
746.737548828,13904.525
747.004089355,13925.075
747.270751953,13952.975
747.53717041,13963.75
747.803710938,13884.875
748.070251465,13881.2
748.336608887,13871.65
748.603027344,13817.1
748.869445801,13867.925
749.135803223,13857.2
749.402099609,13876.275
749.668457031,13876.775
749.934753418,13826.9
750.20098877,13755.275
750.467224121,13876.45
750.733459473,13815.2
750.999572754,13793.575
751.26574707,13678.175
751.531860352,13763.8
751.797912598,13723.325
752.064025879,13647.55
752.330078125,13648.175
752.596069336,13645.2
752.862060547,13555.125
753.127990723,13595.775
753.393920898,13564.725
753.659912109,13509.7
753.925720215,13560.725
754.19152832,13505.4
754.457397461,13451.425
754.723144531,13418.625
754.988952637,13369.7
755.254699707,13377.725
755.520385742,13395.85
755.786071777,13384.3
756.051696777,13339.4
756.317382812,13286.275
756.582946777,13255.8
756.848510742,13298.75
757.114074707,13181.575
757.379577637,13190.65
757.645080566,13306.5
757.910583496,13235.875
758.175964355,13157.525
758.441345215,13116.725
758.706848145,12937.425
758.972106934,12909.9
759.237426758,12979.525
759.502807617,13014.675
759.768005371,12986.0
760.03326416,12992.825
760.298522949,12885.825
760.563659668,12926.95
760.828857422,12905.2
761.093994141,12878.8
761.359130859,12798.675
761.624206543,12781.7
761.889282227,12733.475
762.15423584,12740.775
762.419250488,12734.95
762.684265137,12646.5
762.949157715,12613.45
763.214050293,12593.35
763.479003906,12624.35
763.743835449,12580.55
764.008666992,12559.925
764.2734375,12533.525
764.538208008,12594.1
764.802978516,12620.925
765.067687988,12567.35
765.332397461,12552.45
765.597045898,12559.15
765.861694336,12475.3
766.126342773,12424.5
766.390930176,12375.75
766.655395508,12350.525
766.920043945,12303.925
767.184509277,12310.575
767.448974609,12298.65
767.713439941,12265.375
767.977783203,12237.65
768.2421875,12280.65
768.506591797,12194.475
768.770874023,12306.575
769.03515625,12253.9
769.299499512,12228.25
769.563720703,12240.7
769.827941895,12159.225
770.092163086,12159.075
770.356323242,12119.15
770.620483398,12154.65
770.88458252,12163.725
771.148681641,12135.8
771.412719727,12121.875
771.676757812,12152.75
771.940734863,12089.7
772.204711914,12078.0
772.468688965,12075.675
772.73260498,12044.325
772.996459961,12048.625
773.260314941,10776.725
773.524169922,1367.3
773.787963867,161.575
774.051696777,126.7
774.315551758,120.8
774.579223633,123.025
774.842895508,120.75
775.106567383,120.575
775.370239258,119.075
775.633789062,124.925
775.897399902,126.725
776.160949707,121.05
776.424499512,123.025
776.687988281,123.5
776.951477051,124.2
777.214904785,119.625
777.47833252,120.625
