191.299911499,101.95
191.603515625,106.275
191.907119751,98.1
192.210693359,106.575
192.514251709,101.775
192.817810059,104.925
193.121368408,106.775
193.42489624,107.75
193.728408813,101.825
194.031936646,100.925
194.33543396,97.7
194.638916016,113.025
194.94241333,101.075
195.245880127,99.1
195.549331665,96.4
195.852767944,100.125
196.156204224,192.025
196.459625244,186.575
196.763015747,188.75
197.066436768,196.275
197.369812012,186.075
197.673187256,187.875
197.9765625,181.925
198.279922485,190.375
198.583251953,184.075
198.886581421,187.375
199.18989563,196.35
199.493209839,190.275
199.79649353,179.1
200.09979248,194.875
200.403076172,184.9
200.706314087,185.95
201.009567261,188.45
201.312820435,192.65
201.616027832,182.7
201.919235229,177.6
202.222457886,182.475
202.525634766,187.35
202.828826904,175.875
203.132003784,180.225
203.435150146,178.175
203.738296509,175.35
204.041412354,177.1
204.344558716,180.725
204.647659302,188.35
204.950759888,184.7
205.253845215,183.6
205.556930542,177.95
205.859985352,180.925
206.163024902,181.65
206.466079712,184.225
206.769104004,191.425
207.072113037,185.625
207.375137329,181.85
207.678131104,181.675
207.981109619,188.55
208.284088135,184.8
208.587036133,185.55
208.889984131,189.625
209.19291687,188.15
209.495849609,189.125
209.798751831,192.55
210.101654053,190.025
210.404556274,194.175
210.707427979,190.975
211.010269165,196.15
211.31312561,193.7
211.615982056,192.75
211.918807983,199.425
212.221618652,194.15
212.524429321,188.725
212.827224731,200.4
213.130004883,199.675
213.432769775,197.8
213.735534668,197.425
214.038269043,202.075
214.341003418,198.35
214.643737793,205.825
214.946456909,207.05
215.249145508,209.025
215.551834106,209.375
215.854507446,213.25
216.157165527,211.425
216.45980835,209.925
216.762451172,216.625
217.065078735,216.45
217.36769104,213.875
217.670303345,224.075
217.972885132,221.825
218.275466919,227.925
218.578048706,220.375
218.880599976,237.4
219.183120728,231.125
219.485656738,234.325
219.788192749,245.925
220.090682983,266.775
220.393188477,277.375
220.695663452,306.5
220.998138428,329.75
221.300582886,374.75
221.603042603,410.225
221.905487061,464.525
222.207901001,525.5
222.510299683,586.2
222.812728882,663.4
223.115097046,755.95
223.41746521,851.425
223.719848633,938.325
224.022171021,1031.65
224.324508667,1128.25
224.626846313,1259.075
224.929168701,1375.1
225.231460571,1494.6
225.533737183,1610.575
225.836013794,1737.8
226.138290405,1847.15
226.440536499,1943.025
226.742767334,2079.15
227.044998169,2173.05
227.347213745,2312.675
227.649429321,2390.525
227.951629639,2478.425
228.253799438,2575.425
228.555953979,2666.675
228.858123779,2741.85
229.160263062,2812.725
229.462371826,2911.025
229.764511108,2962.5
230.066619873,3033.575
230.36869812,3112.925
230.670776367,3188.95
230.972854614,3274.225
231.274902344,3347.1
231.576950073,3448.15
231.878967285,3514.95
232.180999756,3595.35
232.48298645,3665.9
232.784988403,3773.9
233.086975098,3851.65
233.388946533,3908.95
233.69090271,4018.2
233.992858887,4092.8
234.294769287,4139.125
234.596694946,4230.325
234.898605347,4314.25
235.200500488,4354.6
235.502380371,4395.425
235.804244995,4465.5
236.106109619,4464.35
236.407958984,4521.8
236.709777832,4587.1
237.011581421,4610.1
237.313400269,4637.7
237.615203857,4659.95
237.916976929,4723.125
238.21875,4751.8
238.520507812,4815.475
238.822250366,4812.45
239.12399292,4843.65
239.425704956,4887.8
239.727401733,4877.6
240.02911377,4931.0
240.330780029,4938.75
240.632446289,4986.25
240.93409729,4998.175
241.23576355,5065.125
241.537384033,5050.75
241.839004517,5082.425
242.140594482,5107.05
242.442199707,5181.45
242.743774414,5188.35
243.045333862,5230.625
243.346923828,5256.0
243.648452759,5291.85
243.949966431,5289.6
244.251495361,5337.15
244.552993774,5355.625
244.854492188,5341.2
245.155975342,5336.625
245.457443237,5359.675
245.758880615,5360.85
246.060333252,5346.625
246.36177063,5330.45
246.66317749,5301.0
246.964569092,5315.35
247.265945435,5290.4
247.567337036,5279.875
247.86869812,5301.475
248.170059204,5306.0
248.471389771,5301.55
248.772705078,5303.225
249.074035645,5373.3
249.375335693,5369.225
249.676620483,5407.525
249.977890015,5413.5
250.279159546,5499.1
250.58039856,5532.525
250.881637573,5560.05
251.182876587,5622.425
251.484069824,5686.3
251.785263062,5756.975
252.086456299,5823.3
252.387619019,5881.6
252.688781738,5940.15
252.989929199,6015.325
253.291061401,6076.15
253.592178345,6158.525
253.893280029,6183.15
254.194366455,6224.225
254.49546814,6278.925
254.796524048,6304.5
255.097579956,6351.725
255.398620605,6365.65
255.699645996,6449.55
256.000640869,6425.675
256.30166626,6441.25
256.602661133,6492.9
256.903656006,6475.525
257.204589844,6462.6
257.505523682,6435.6
257.80645752,6484.775
258.107391357,6438.325
258.408294678,6406.725
258.709228516,6381.725
259.010070801,6321.85
259.310943604,6299.125
259.611846924,6232.125
259.912658691,6194.25
260.213500977,6135.125
260.514343262,6084.275
260.815124512,6016.225
261.115936279,5958.4
261.416717529,5929.75
261.717468262,5893.25
262.018218994,5859.275
262.318969727,5826.2
262.619689941,5836.7
262.920410156,5887.5
263.221130371,5870.25
263.521789551,5903.85
263.822479248,5932.45
264.123138428,5982.6
264.42376709,5983.05
264.72442627,5942.325
265.025054932,5935.625
265.325622559,5941.05
265.626251221,5897.775
265.926818848,5867.65
266.227386475,5811.35
266.527954102,5763.7
266.828460693,5766.1
267.12902832,5630.05
267.429534912,5612.525
267.730010986,5557.075
268.030517578,5487.125
268.330993652,5442.125
268.631439209,5368.425
268.931915283,5347.9
269.232299805,5329.8
269.532745361,5281.425
269.8331604,5216.95
270.133544922,5179.95
270.433929443,5168.85
270.734313965,5139.65
271.034637451,5123.25
271.334991455,5098.575
271.635314941,5125.275
271.935638428,5102.25
272.235931396,5160.25
272.536254883,5159.975
272.836486816,5189.85
273.136749268,5266.875
273.437011719,5315.65
273.737213135,5403.35
274.037445068,5447.775
274.337677002,5534.775
274.6378479,5590.825
274.938049316,5687.05
275.238220215,5754.05
275.538360596,5847.875
275.838500977,5902.025
276.138641357,6037.9
276.438751221,6062.15
276.738830566,6124.6
277.03894043,6159.975
277.338989258,6273.5
277.639038086,6339.75
277.939056396,6397.125
278.239105225,6404.725
278.539093018,6483.95
278.839141846,6504.875
279.139129639,6555.65
279.439086914,6632.1
279.739044189,6653.875
280.039001465,6702.975
280.338928223,6734.6
280.63885498,6783.6
280.938781738,6824.275
281.238647461,6819.825
281.538513184,6845.875
281.838409424,6833.575
282.138244629,6879.05
282.438079834,6863.825
282.737945557,6900.15
283.037719727,6888.775
283.337524414,6896.675
283.637298584,6931.925
283.937072754,6932.25
284.236816406,6912.85
284.536560059,6910.0
284.836303711,6908.825
285.136016846,6961.35
285.43572998,6950.45
285.735412598,6907.275
286.035064697,6937.3
286.334747314,6968.9
286.634368896,6948.525
286.933990479,6862.6
287.233642578,6841.625
287.533203125,6849.3
287.832824707,6763.375
288.132385254,6670.575
288.431945801,6573.5
288.731506348,6463.025
289.031036377,6319.2
289.330566406,6208.675
289.630065918,6201.675
289.92956543,6166.75
290.229034424,6231.025
290.528503418,6378.925
290.827941895,6495.875
291.127380371,6613.375
291.42678833,6711.775
291.726226807,6812.05
292.025604248,6841.05
292.324981689,6860.1
292.624359131,6884.0
292.923736572,6904.7
293.223052979,6899.6
293.522369385,6878.3
293.821685791,6849.975
294.12097168,6833.175
294.420257568,6832.325
294.719543457,6791.55
295.018768311,6766.95
295.318023682,6720.7
295.617248535,6661.625
295.916442871,6621.225
296.215667725,6551.9
296.514862061,6451.8
296.813995361,6252.9
297.11315918,6075.6
297.412322998,5952.925
297.711425781,5940.05
298.010559082,6067.95
298.309631348,6265.075
298.608734131,6427.275
298.907806396,6586.175
299.206848145,6699.9
299.505889893,6754.3
299.804901123,6839.4
300.103912354,6901.35
300.402954102,6975.725
300.701904297,7010.175
301.00088501,7074.825
301.299835205,7151.575
301.5987854,7175.025
301.897735596,7232.475
302.196624756,7281.675
302.495513916,7341.475
302.794403076,7376.5
303.093292236,7425.625
303.392120361,7474.625
303.690979004,7520.75
303.989837646,7543.575
304.288604736,7596.4
304.587402344,7614.35
304.886199951,7644.85
305.184967041,7691.125
305.483734131,7732.575
305.782501221,7739.875
306.081176758,7771.975
306.37991333,7790.975
306.678619385,7799.5
306.977294922,7807.025
307.275970459,7804.625
307.574645996,7827.175
307.873260498,7811.85
308.171875,7830.65
308.470489502,7832.0
308.769104004,7733.0
309.067687988,7761.3
309.366241455,7773.675
309.664794922,7716.3
309.963348389,7752.8
310.261871338,7729.05
310.560394287,7742.15
310.858856201,7738.375
311.157348633,7798.7
311.455810547,7799.575
311.754272461,7800.425
312.052703857,7883.525
312.351135254,7914.025
312.649536133,7904.15
312.947937012,7862.6
313.246307373,7874.175
313.544647217,7900.7
313.843017578,7847.1
314.141387939,7851.775
314.439697266,7860.425
314.738006592,7766.875
315.036315918,7740.675
315.334564209,7658.45
315.6328125,7620.65
315.931091309,7567.225
316.229309082,7483.4
316.527526855,7350.05
316.825744629,7342.225
317.123901367,7250.65
317.422088623,7199.075
317.720245361,7194.85
318.0184021,7224.225
318.316497803,7258.4
318.614654541,7268.625
318.912750244,7355.2
319.21081543,7343.425
319.50894165,7389.275
319.806945801,7372.75
320.104980469,7394.65
320.403045654,7371.7
320.701049805,7365.55
320.999023438,7320.875
321.297027588,7284.575
321.595001221,7257.2
321.892913818,7224.475
322.190887451,7201.275
322.488830566,7129.85
322.786712646,7100.9
323.084625244,7035.15
323.382507324,7022.8
323.680358887,6960.25
323.978210449,6874.475
324.276062012,6846.725
324.573852539,6781.775
324.871643066,6736.525
325.169464111,6677.025
325.467224121,6625.875
325.764984131,6555.325
326.062744141,6519.2
326.360473633,6411.25
326.658203125,6389.225
326.955871582,6339.225
327.253570557,6281.9
327.551239014,6242.775
327.848907471,6152.175
328.146514893,6120.45
328.444152832,6037.75
328.741790771,5978.95
329.039367676,5959.45
329.336914062,5895.575
329.634521484,5845.625
329.932067871,5805.8
330.229553223,5730.35
330.527160645,5693.175
330.824615479,5660.875
331.12210083,5583.975
331.419586182,5504.4
331.717041016,5456.4
332.014465332,5375.85
332.311920166,5351.95
332.609313965,5287.175
332.906707764,5302.825
333.204101562,5286.95
333.501495361,5294.775
333.798828125,5318.65
334.096160889,5348.15
334.39352417,5401.25
334.690795898,5456.4
334.988098145,5495.025
335.285400391,5555.025
335.582641602,5558.45
335.879882812,5607.625
336.177124023,5601.025
336.474334717,5669.9
336.77154541,5641.225
337.068725586,5672.55
337.365905762,5683.925
337.66305542,5700.425
337.960205078,5716.475
338.257324219,5749.275
338.554443359,5720.025
338.8515625,5752.2
339.148590088,5742.075
339.445648193,5764.575
339.742736816,5741.75
340.039764404,5739.35
340.336761475,5686.375
340.63381958,5656.5
340.930755615,5604.425
341.227722168,5557.7
341.524688721,5493.825
341.821624756,5446.975
342.118560791,5460.45
342.415496826,5555.15
342.712402344,5669.75
343.009246826,5798.45
343.306121826,5890.7
343.602966309,5919.125
343.899810791,5995.675
344.196624756,6084.6
344.493438721,6095.775
344.79019165,6153.6
345.086975098,6199.45
345.383758545,6240.225
345.680480957,6226.8
345.977203369,6248.05
346.273956299,6293.4
346.570617676,6265.475
346.86730957,6280.05
347.163970947,6248.65
347.460601807,6316.675
347.757232666,6313.275
348.053894043,6315.525
348.350463867,6239.6
348.647064209,6218.3
348.943634033,6194.025
349.24017334,6216.275
349.536712646,6178.45
349.833251953,6177.25
350.129760742,6144.675
350.426208496,6146.175
350.722747803,6114.7
351.019195557,6106.3
351.315612793,6068.825
351.612060547,6047.1
351.908508301,6006.45
352.204864502,5940.4
352.501281738,5914.7
352.797637939,5847.525
353.093963623,5780.875
353.390319824,5739.6
353.686645508,5648.1
353.982940674,5586.65
354.27923584,5548.525
354.575531006,5508.625
354.871765137,5515.275
355.167999268,5476.025
355.464233398,5475.05
355.760437012,5479.975
356.056640625,5483.3
356.352813721,5500.225
356.648956299,5493.05
356.945129395,5511.775
357.241271973,5515.65
357.537384033,5540.225
357.833496094,5476.0
358.129577637,5463.25
358.425628662,5440.5
358.721679688,5422.325
359.017730713,5403.6
359.313720703,5352.125
359.609710693,5332.725
359.905761719,5288.6
360.201721191,5241.075
360.497650146,5185.275
360.793609619,5190.875
361.089538574,5119.475
361.385437012,5038.775
361.681365967,5007.3
361.977233887,4968.175
362.273071289,4909.1
362.568908691,4816.575
362.864746094,4693.375
363.160552979,4609.125
363.456359863,4445.375
363.752166748,4320.325
364.047912598,4247.125
364.343658447,4213.675
364.639434814,4251.15
364.935119629,4256.625
365.230834961,4343.875
365.526550293,4351.4
365.822174072,4382.475
366.117858887,4386.2
366.413482666,4414.6
366.709075928,4467.3
367.004730225,4372.65
367.300292969,4354.475
367.595855713,4393.7
367.891448975,4324.5
368.186981201,4209.025
368.482513428,4180.1
368.778015137,4176.575
369.073547363,4145.125
369.36895752,4140.55
369.664428711,4074.425
369.95993042,3968.95
370.255310059,3925.45
370.550720215,3884.05
370.846160889,3853.05
371.14151001,3822.875
371.436859131,3796.1
371.73223877,3789.3
372.027557373,3766.85
372.322875977,3714.5
372.618164062,3680.975
372.913482666,3651.6
373.208709717,3633.175
373.503967285,3592.5
373.799194336,3539.375
374.094421387,3537.9
374.389648438,3520.55
374.684844971,3518.25
374.979980469,3553.0
375.275146484,3562.925
375.570281982,3575.15
375.865386963,3582.5
376.160522461,3543.9
376.455596924,3549.825
376.750640869,3619.1
377.045715332,3640.675
377.340759277,3683.8
377.635772705,3728.775
377.93081665,3749.95
378.225769043,3813.5
378.520751953,3875.925
378.815734863,3826.6
379.110656738,3977.875
379.405548096,4100.3
379.700500488,3982.225
379.995391846,3794.975
380.290252686,3846.175
380.585083008,3958.225
380.879974365,3985.7
381.17477417,3908.875
381.469543457,3859.8
381.764404297,3828.225
382.059143066,3858.2
382.353912354,3943.7
382.648651123,4011.075
382.943389893,4003.325
383.238067627,3859.9
383.532775879,3859.325
383.827484131,3794.625
384.12210083,3826.725
384.416778564,3750.925
384.711425781,3667.85
385.006011963,3674.1
385.300628662,3696.5
385.595184326,3744.175
385.88973999,3843.475
386.184295654,3927.475
386.478820801,4002.9
386.77331543,4085.725
387.067840576,4186.15
387.362335205,4266.375
387.656768799,4332.25
387.951202393,4371.575
388.245635986,4419.675
388.540039062,4492.425
388.834472656,4553.4
389.128875732,4454.35
389.423187256,4269.525
389.717559814,4210.2
390.011871338,4308.6
390.306182861,4326.25
390.600463867,4342.075
390.894775391,4413.0
391.189025879,4440.075
391.48324585,4445.825
391.777526855,4473.225
392.071685791,4662.625
392.365875244,4743.975
392.660064697,4808.675
392.95425415,5120.775
393.248382568,5099.85
393.542510986,4685.175
393.836608887,4500.375
394.130706787,4512.975
394.424804688,4456.275
394.71887207,4592.95
395.012878418,4560.725
395.306915283,4458.925
395.600921631,4398.725
395.894927979,4363.95
396.188903809,4413.0
396.482879639,4430.1
396.776794434,4616.225
397.070739746,4578.325
397.364654541,4599.85
397.658538818,4955.325
397.952423096,4973.25
398.246307373,4929.075
398.540100098,5406.3
398.833953857,5307.45
399.127746582,4836.2
399.421508789,4879.2
399.715301514,4817.625
400.009063721,4733.65
400.30279541,4582.25
400.596496582,4516.625
400.890258789,4679.05
401.183929443,4762.025
401.47756958,4636.75
401.771240234,4421.65
402.064880371,4459.975
402.35848999,4496.375
402.652130127,4389.725
402.945678711,4464.325
403.239257812,4404.075
403.532775879,4364.925
403.82635498,4409.7
404.119842529,4333.95
404.413360596,4317.925
404.706848145,4352.975
405.000274658,4302.625
405.293762207,4387.8
405.587188721,4434.075
405.880584717,4291.1
406.17401123,4105.025
406.467407227,3928.7
406.760742188,3957.85
407.054107666,3974.9
407.347442627,3908.8
407.640716553,3893.775
407.934051514,3950.025
408.227325439,4004.7
408.520568848,4205.75
408.813842773,4283.675
409.107086182,4103.475
409.400238037,4059.9
409.693450928,4006.35
409.986633301,4123.25
410.279754639,4028.225
410.572875977,3761.475
410.86605835,3675.15
411.159118652,3722.875
411.452209473,3719.475
411.745330811,3591.675
412.038360596,3518.25
412.331390381,3546.425
412.624420166,3604.175
412.917388916,3503.075
413.210388184,3362.3
413.503387451,3328.825
413.796295166,3232.0
414.089233398,3094.025
414.382141113,3009.425
414.675048828,2988.45
414.967926025,3015.575
415.260803223,2973.85
415.55368042,2983.625
415.846466064,2963.55
416.139282227,3031.925
416.432098389,3132.875
416.724853516,3147.225
417.017608643,3079.375
417.31036377,3090.15
417.603088379,3210.55
417.895782471,3177.0
418.188476562,3136.575
418.481140137,3214.725
418.773803711,3261.65
419.066436768,3248.05
419.359039307,3315.225
419.651641846,3300.825
419.944244385,3303.65
420.236816406,3277.025
420.529327393,3462.725
420.821899414,3513.85
421.114379883,3457.6
421.406860352,3714.05
421.699371338,3898.225
421.991821289,3861.775
422.284240723,3690.275
422.576721191,3531.425
422.869110107,3450.35
423.161468506,3395.975
423.453857422,3424.95
423.74621582,3333.325
424.038543701,3207.425
424.330871582,3162.525
424.623168945,3089.475
424.915435791,3220.825
425.207702637,3191.75
425.499969482,3158.025
425.792205811,3086.0
426.084411621,2866.625
426.376617432,2935.8
426.668762207,3009.9
426.9609375,2906.65
427.253082275,2996.05
427.545196533,3381.775
427.837310791,3097.325
428.129425049,2859.725
428.421447754,3039.775
428.713531494,3051.775
429.005554199,3046.15
429.297576904,3054.375
429.589599609,3433.45
429.881561279,3746.075
430.173522949,3540.575
430.465484619,3484.6
430.757415771,3541.525
431.049316406,3357.9
431.341186523,3141.6
431.633117676,3045.275
431.924957275,2763.65
432.21673584,2667.175
432.508636475,2796.125
432.800415039,2822.225
433.092163086,2719.4
433.383972168,2708.425
433.675689697,3350.1
433.967437744,3797.675
434.259155273,2933.475
434.550872803,2642.575
434.842498779,2689.35
435.134185791,2812.15
435.425842285,2839.475
435.717437744,2749.65
436.009063721,2575.875
436.30065918,2694.125
436.592224121,3014.95
436.883758545,2857.35
437.175323486,2612.85
437.466827393,2587.725
437.758331299,2591.05
438.049804688,2604.75
438.341247559,2677.8
438.63269043,2744.075
438.924163818,2738.4
439.215515137,2700.575
439.50692749,2614.475
439.798309326,2623.45
440.089660645,2617.175
440.380981445,2550.125
440.672332764,2547.6
440.963623047,2785.075
441.254882812,3184.675
441.546173096,3357.575
441.837402344,3125.75
442.128631592,2965.05
442.41986084,2945.075
442.711029053,2825.0
443.002197266,2891.8
443.293365479,3055.275
443.584503174,3185.525
443.875610352,3139.175
444.166717529,2907.8
444.457794189,2965.95
444.748840332,2948.275
445.039916992,2900.075
445.330932617,3000.5
445.621948242,2857.825
445.912963867,2677.75
446.203918457,2887.65
446.494812012,3086.25
446.785827637,2900.85
447.076721191,2740.8
447.367584229,2739.25
447.658447266,2708.0
447.949371338,2753.025
448.24017334,2626.025
448.530975342,2578.075
448.821838379,2738.25
449.112579346,2791.0
449.40335083,2743.45
449.694152832,2763.55
449.984863281,2763.825
450.27557373,2713.325
450.56628418,2768.275
450.856933594,2782.875
451.147583008,2627.3
451.438262939,2529.075
451.728881836,2725.85
452.019470215,2816.2
452.310089111,2622.675
452.600646973,2647.1
452.891174316,2694.825
453.181732178,2535.1
453.472229004,2425.15
453.762695312,2523.3
454.053222656,2544.05
454.343658447,2433.825
454.634063721,2369.275
454.924530029,2532.875
455.214935303,2659.125
455.505279541,2714.675
455.795715332,2601.825
456.086029053,2419.75
456.376312256,2405.475
456.666687012,2425.525
456.956939697,2524.125
457.247192383,2519.15
457.537445068,2583.725
457.827728271,2767.05
458.117919922,2711.425
458.408081055,2633.85
458.698303223,2796.35
458.988433838,2729.3
459.278564453,2569.875
459.568725586,2810.725
459.858825684,2941.35
460.148864746,2629.775
460.438995361,2610.4
460.729034424,2649.575
461.019042969,2670.975
461.309082031,2831.475
461.599060059,2739.8
461.889007568,2312.75
462.179016113,2160.8
462.468933105,2363.675
462.75881958,2483.85
463.048736572,2237.4
463.338592529,2495.725
463.628448486,2805.175
463.918365479,2539.85
464.2081604,2692.475
464.497924805,2653.975
464.787780762,2784.325
465.077514648,3047.95
465.367218018,2693.475
465.657012939,2871.875
465.946685791,3244.025
466.236358643,2896.4
466.526092529,2422.9
466.815734863,2402.425
467.105316162,2348.375
467.394927979,2378.45
467.684570312,2263.025
467.974121094,2315.575
468.263671875,2413.625
468.553222656,2232.175
468.842773438,2131.175
469.132232666,2036.2
469.42175293,2050.85
469.711212158,2030.6
470.000640869,1919.075
470.290100098,1966.6
470.579498291,2011.35
470.868835449,2011.9
471.158294678,1972.975
471.447601318,1954.475
471.736907959,2015.05
472.026275635,2073.3
472.315551758,2052.725
472.604797363,2060.575
472.894104004,2164.025
473.183319092,2266.65
473.47253418,2267.375
473.761779785,2248.45
474.05090332,2183.7
474.340087891,2148.0
474.629241943,2084.425
474.918365479,2235.85
475.207427979,2486.05
475.496551514,2502.375
475.785614014,2269.875
476.074645996,2088.425
476.363708496,2178.625
476.652679443,2300.55
476.941650391,2149.3
477.230682373,1992.875
477.519622803,2006.875
477.808502197,2150.725
478.097412109,2384.05
478.386352539,2325.725
478.675201416,2093.35
478.964050293,1996.175
479.25289917,2164.725
479.541717529,2227.175
479.830474854,2074.55
480.11932373,2388.175
480.408050537,2563.45
480.696777344,2209.325
480.985534668,2084.825
481.274200439,2159.75
481.562866211,2412.7
481.851593018,2419.25
482.140197754,2368.225
482.428833008,2209.025
482.717468262,2034.15
483.006011963,2060.375
483.294586182,2168.875
483.5831604,2205.55
483.871673584,2076.425
484.16015625,2214.975
484.448699951,2418.775
484.7371521,2463.15
485.02557373,2472.225
485.314025879,2218.375
485.602416992,3411.5
485.890777588,12242.675
486.179199219,10910.625
486.467559814,2921.25
486.755859375,2122.675
487.044219971,2470.475
487.332519531,2640.0
487.620758057,2270.6
487.908966064,2027.975
488.197265625,1840.125
488.485473633,1759.575
488.773651123,1859.125
489.061859131,1877.9
489.350006104,1814.15
489.638122559,1757.3
489.926300049,1770.95
490.214355469,1733.35
490.502441406,1701.8
490.790527344,1622.525
491.078552246,1801.175
491.366546631,1805.15
491.654602051,1583.05
491.942565918,1649.65
492.230499268,1699.85
492.518493652,1660.2
492.806396484,1686.5
493.094268799,1614.95
493.382202148,1650.3
493.670074463,1749.65
493.957885742,1605.275
494.245727539,1607.6
494.533508301,1758.475
494.821289062,1655.125
495.109100342,1525.75
495.396850586,1472.725
495.684539795,1434.925
495.972290039,1622.775
496.25994873,1928.55
496.547607422,1942.5
496.835296631,1773.7
497.122894287,1480.925
497.410522461,1407.675
497.6980896,1414.55
497.985687256,1376.375
498.273223877,1470.475
498.560760498,1542.05
498.848266602,1555.05
499.135772705,1539.8
499.423217773,1572.2
499.710693359,1670.05
499.998138428,1604.85
500.285522461,1457.075
500.572937012,1389.25
500.860290527,1434.725
501.147644043,1520.25
501.434997559,1728.6
501.722290039,1606.5
502.00958252,1409.35
502.296875,1633.025
502.584106445,1622.575
502.871337891,1460.125
503.158599854,1527.425
503.445770264,1608.675
503.732910156,1585.275
504.020141602,1412.25
504.307220459,1393.2
504.594329834,1416.95
504.881469727,1366.45
505.168518066,1420.375
505.455535889,1493.225
505.742614746,1390.3
506.029632568,1326.45
506.316589355,1485.1
506.603637695,1568.975
506.890563965,1400.2
507.177459717,1234.475
507.464385986,1170.025
507.751312256,1367.8
508.038146973,1439.575
508.325012207,1312.65
508.611877441,1374.375
508.898681641,1380.075
509.185424805,1238.275
509.472259521,1198.75
509.759002686,1270.05
510.045715332,1295.15
510.332458496,1247.475
510.619140625,1303.575
510.905761719,1224.175
511.192504883,1225.7
511.479095459,1263.525
511.765686035,1224.225
512.052307129,1143.65
512.338928223,1100.125
512.625427246,1149.975
512.91204834,1198.825
513.198486328,1182.0
513.484985352,1159.975
513.77142334,1084.2
514.057922363,1123.65
514.344299316,1121.1
514.63079834,1083.725
514.917175293,1079.175
515.203552246,1000.7
515.489868164,977.625
515.776245117,1080.125
516.0625,1115.375
516.348815918,1037.475
516.635070801,1070.975
516.921325684,1114.775
517.207580566,1067.175
517.493774414,977.825
517.779968262,985.3
518.066101074,1016.35
518.352294922,982.25
518.638366699,982.75
518.924499512,1058.65
519.210632324,1125.125
519.496643066,1085.875
519.782714844,1002.2
520.068786621,974.825
520.354736328,933.55
520.640686035,899.225
520.926757812,936.125
521.212646484,1008.075
521.498535156,1012.2
521.784484863,972.35
522.0703125,904.7
522.356262207,917.875
522.642089844,992.65
522.927856445,981.25
523.213684082,977.25
523.499511719,971.3
523.78527832,1010.85
524.070983887,1058.425
524.356750488,1041.075
524.64239502,1009.825
524.928039551,994.55
525.213806152,1009.1
525.499389648,995.425
525.784973145,1023.175
526.070617676,1063.85
526.356140137,1036.15
526.641723633,1044.275
526.927307129,1093.225
527.212768555,1100.75
527.498291016,1094.525
527.783752441,1079.425
528.069213867,1063.175
528.354675293,1082.575
528.640014648,1235.425
528.925476074,1293.15
529.21081543,1222.5
529.496154785,1206.775
529.781555176,1178.2
530.066833496,1186.45
530.352050781,1206.125
530.637390137,1194.225
530.922607422,1196.725
531.207824707,1196.675
531.493041992,1179.325
531.778198242,1244.25
532.063354492,1228.425
532.348571777,1175.4
532.633666992,1193.175
532.918762207,1261.4
533.203857422,1345.675
533.488891602,1369.75
533.773925781,1307.9
534.059020996,1296.25
534.343933105,1314.825
534.628967285,1304.6
534.91394043,1308.85
535.198852539,1326.775
535.483703613,1301.125
535.768676758,1249.45
536.053527832,1258.05
536.338317871,1226.1
536.62322998,1155.15
536.90802002,1138.275
537.192810059,1168.625
537.477539062,1224.6
537.762329102,1276.4
538.047058105,1312.175
538.331726074,1330.55
538.616455078,1327.825
538.901123047,1308.425
539.18572998,1347.075
539.470397949,1345.925
539.755004883,1332.725
540.039550781,1315.05
540.32409668,1265.025
540.608703613,1297.925
540.893188477,1393.5
541.17767334,1398.95
541.462158203,1405.3
541.746643066,1369.125
542.031066895,1405.4
542.315429688,1436.275
542.59979248,1440.925
542.884216309,1432.35
543.168579102,1410.025
543.452941895,1415.275
543.737243652,1471.1
544.021484375,1520.225
544.305725098,1508.35
544.590026855,1476.75
544.874267578,1501.375
545.158447266,1565.8
545.442626953,1482.075
545.726806641,1391.55
546.010925293,1422.8
546.29510498,1452.775
546.579162598,1437.0
546.863220215,1479.55
547.147277832,1549.7
547.431335449,1617.225
547.715332031,1680.025
547.999328613,1770.475
548.283325195,1780.25
548.567260742,1658.225
548.851135254,1627.05
549.135070801,1602.0
549.419006348,1513.8
549.702819824,1607.0
549.986755371,1668.65
550.270507812,1638.45
550.554321289,1674.075
550.83807373,1680.65
551.121826172,1648.65
551.405517578,1659.15
551.689331055,1764.125
551.973022461,2000.075
552.256652832,2025.8
552.540344238,1957.85
552.823974609,1924.35
553.107543945,1909.5
553.391174316,1968.675
553.674743652,2021.925
553.958251953,2032.125
554.241821289,2043.675
554.525268555,1989.625
554.808776855,1972.75
555.092285156,2156.025
555.375671387,2236.05
555.659057617,2227.075
555.942504883,2258.5
556.225891113,2281.15
556.509216309,2260.95
556.792541504,2166.675
557.075866699,2238.55
557.359130859,2272.0
557.64239502,2264.225
557.92565918,2357.075
558.208862305,2331.175
558.49206543,2265.35
558.77532959,2286.775
559.058410645,2320.125
559.341552734,2308.7
559.624694824,2365.275
559.907775879,2427.175
560.190856934,2540.875
560.473937988,2532.8
560.756896973,2576.45
561.039978027,2603.825
561.322937012,2560.4
561.605895996,2561.475
561.88885498,2528.675
562.171813965,2512.225
562.454650879,2531.75
562.737548828,2551.575
563.020446777,2615.225
563.303283691,2634.3
563.58605957,2661.95
563.868896484,2711.75
564.151672363,2730.225
564.434387207,2765.975
564.717163086,2725.725
564.99987793,2769.35
565.282531738,2829.0
565.565185547,2777.15
565.847839355,2784.6
566.130432129,2886.1
566.413085938,2881.825
566.695678711,2873.425
566.978149414,2975.825
567.260681152,3109.4
567.543273926,3185.25
567.825744629,3099.275
568.108154297,3117.85
568.390686035,3256.175
568.673095703,3364.625
568.955505371,3417.4
569.237854004,3429.4
569.520202637,3695.0
569.802490234,3901.675
570.084838867,3872.125
570.367126465,3706.875
570.649414062,3705.675
570.93170166,4034.225
571.213928223,4119.575
571.496154785,3891.075
571.778381348,4107.325
572.06048584,4322.55
572.342590332,3920.1
572.624755859,3582.525
572.906860352,3661.225
573.188903809,4295.475
573.470947266,4522.675
573.752990723,4284.625
574.03503418,4382.65
574.317016602,4760.65
574.598937988,4576.775
574.88092041,4426.6
575.162841797,4598.0
575.444763184,4248.975
575.726623535,4007.625
576.008483887,4052.325
576.290344238,4429.525
576.572143555,4617.475
576.853881836,4682.3
577.135681152,4578.4
577.417419434,4639.55
577.699157715,5429.65
577.980895996,5607.25
578.262573242,4998.825
578.544128418,4545.125
578.825866699,4466.85
579.107421875,4206.175
579.388977051,4364.025
579.670593262,4741.3
579.952148438,4576.5
580.233642578,4671.575
580.515197754,4792.825
580.796691895,4462.7
581.078125,4646.35
581.359619141,6032.15
581.640991211,6150.35
581.922363281,5299.325
582.203796387,5358.225
582.485107422,5005.0
582.766418457,4626.75
583.047790527,4500.975
583.329040527,4387.825
583.610290527,4267.175
583.891540527,4375.25
584.172790527,4636.2
584.453918457,4678.575
584.735107422,4707.275
585.016235352,5141.7
585.297363281,5124.45
585.578552246,4916.25
585.859619141,4844.45
586.140625,4651.025
586.421630859,4513.95
586.702697754,4560.325
586.983642578,4799.85
587.264648438,4935.875
587.545654297,4877.675
587.826477051,4819.65
588.107421875,4629.125
588.388305664,4672.575
588.669189453,4770.25
588.950012207,4615.725
589.230834961,4520.85
589.511657715,4613.325
589.792358398,4683.475
590.073120117,4698.275
590.353881836,4656.025
590.63458252,4679.3
590.915283203,4649.925
591.195922852,4622.5
591.4765625,4680.425
591.757202148,4708.125
592.037780762,4693.95
592.31829834,4697.925
592.598937988,4885.75
592.879394531,5033.675
593.159912109,4954.625
593.440429688,4880.175
593.720825195,4865.95
594.001281738,4845.05
594.281677246,4769.95
594.562072754,4784.3
594.842407227,4880.4
595.122802734,4886.75
595.403137207,4877.175
595.683410645,4852.875
595.963623047,4862.9
596.243896484,4812.025
596.524169922,4782.2
596.804382324,4789.525
597.084533691,4818.15
597.364746094,4856.625
597.644836426,4863.775
597.924987793,4867.35
598.205078125,4827.05
598.485107422,4849.75
598.765197754,4933.675
599.045227051,5023.025
599.325195312,4926.3
599.605224609,4886.975
599.885192871,4915.325
600.165100098,4936.725
600.445007324,4898.325
600.724914551,4884.05
601.004760742,4893.65
601.284667969,4910.85
601.56451416,4883.525
601.844238281,4889.125
602.124084473,4881.8
602.403808594,4893.4
602.683532715,4935.875
602.963256836,4909.475
603.242919922,4953.475
603.522583008,4983.275
603.802246094,4938.4
604.081848145,4909.1
604.36138916,4881.625
604.641052246,4915.125
604.920532227,4879.425
605.200073242,4914.925
605.479614258,4937.3
605.759094238,4939.4
606.038574219,4951.4
606.317932129,4882.775
606.597412109,4878.4
606.87677002,4895.125
607.15612793,4949.475
607.435546875,4926.225
607.714782715,4925.925
607.99407959,4881.625
608.273376465,4867.3
608.552612305,4875.275
608.831848145,4891.3
609.111083984,4899.375
609.390258789,4869.275
609.669433594,4861.75
609.948608398,4927.575
610.227722168,4898.875
610.506713867,4840.3
610.785888672,4844.275
611.064880371,4850.725
611.34387207,4826.75
611.622924805,4855.275
611.901916504,4844.775
612.180847168,4779.075
612.459777832,4791.775
612.738647461,4777.45
613.01751709,4765.175
613.296447754,4713.2
613.575317383,4683.425
613.854064941,4654.95
614.132873535,4551.75
614.411621094,4493.725
614.690368652,4481.7
614.969177246,4418.225
615.247802734,4347.125
615.526489258,4333.95
615.805175781,4236.75
616.08380127,4134.3
616.362365723,4056.9
616.640991211,4021.9
616.919555664,3969.0
617.198059082,4061.95
617.4765625,4280.3
617.755126953,4408.55
618.033569336,4433.2
618.311950684,4424.575
618.590454102,4410.9
618.868774414,4390.525
619.147155762,4386.85
619.425598145,4372.625
619.703857422,4374.975
619.982177734,4375.025
620.260498047,4360.45
620.538757324,4358.3
620.816955566,4329.75
621.095214844,4270.375
621.373413086,4303.95
621.651550293,4325.2
621.929748535,4374.175
622.207824707,4333.025
622.485900879,4350.9
622.764038086,4351.0
623.042053223,4383.3
623.320007324,4387.55
623.598083496,4385.0
623.876037598,4357.55
624.153991699,4370.15
624.432006836,4399.175
624.709838867,4374.85
624.987731934,4380.775
625.265563965,4362.675
625.543395996,4383.425
625.821228027,4404.7
626.098999023,4379.675
626.376831055,4429.675
626.654541016,4447.225
626.932250977,4461.925
627.209960938,4491.175
627.487670898,4515.2
627.765319824,4518.3
628.04296875,4517.35
628.320495605,4514.175
628.598083496,4509.05
628.875671387,4524.425
629.153259277,4564.775
629.430725098,4604.45
629.708251953,4566.05
629.985656738,4589.2
630.263122559,4609.35
630.540588379,4631.475
630.817932129,4639.3
631.095275879,4675.675
631.372680664,4693.95
631.649963379,4745.925
631.927246094,4752.575
632.204589844,4792.15
632.481811523,4822.2
632.759033203,4877.575
633.036254883,4890.45
633.313415527,4956.65
633.590576172,4968.925
633.867736816,5034.525
634.144836426,5094.225
634.421875,5129.175
634.698913574,5159.3
634.976013184,5185.325
635.252990723,5241.55
635.529968262,5260.95
635.807006836,5300.175
636.08392334,5287.975
636.360839844,5190.05
636.637756348,5126.875
636.914611816,5104.15
637.191467285,5068.775
637.468261719,5132.475
637.745056152,5085.525
638.021789551,5098.95
638.298583984,5090.2
638.575317383,5139.125
638.851989746,5134.0
639.12878418,5134.0
639.405395508,5099.55
639.682006836,5122.3
639.958618164,5108.575
640.235229492,5106.725
640.511779785,5145.1
640.788330078,5091.725
641.064880371,5078.2
641.341308594,5066.175
641.617797852,5052.85
641.894226074,5076.3
642.170654297,5066.625
642.44708252,5075.05
642.723388672,5057.8
642.999755859,5061.425
643.276123047,5052.625
643.552429199,5029.3
643.828674316,5030.925
644.104919434,4995.525
644.381164551,4972.475
644.657348633,4989.05
644.933532715,4953.35
645.209716797,4940.0
645.485839844,4956.625
645.761901855,4953.85
646.038024902,4922.775
646.314086914,4937.875
646.590087891,4906.45
646.866149902,4926.75
647.142150879,4883.675
647.41809082,4861.975
647.694030762,4852.825
647.969970703,4850.55
648.245788574,4880.0
648.521728516,4844.0
648.797546387,4827.2
649.073303223,4831.35
649.349182129,4810.725
649.624938965,4804.0
649.900634766,4799.25
650.176391602,4785.7
650.452087402,4773.525
650.727783203,4750.775
651.003479004,4756.475
651.279052734,4760.825
651.554626465,4716.175
651.83026123,4711.75
652.105773926,4731.375
652.381286621,4687.65
652.656860352,4695.3
652.932312012,4689.125
653.207763672,4667.45
653.483215332,4703.325
653.758605957,4683.725
654.033935547,4686.775
654.309326172,4659.725
654.584716797,4696.275
654.859985352,4653.75
655.135253906,4678.4
655.410583496,4677.525
655.685791016,5384.3
655.9609375,8430.6
656.236206055,8233.325
656.511291504,5415.875
656.786437988,4750.225
657.061645508,4659.125
657.336669922,4631.75
657.611694336,4663.6
657.886779785,4680.325
658.161804199,4686.25
658.436828613,4645.825
658.711791992,4664.9
658.986755371,4665.75
659.261657715,4653.1
659.536621094,4648.225
659.811401367,4673.2
660.086303711,4668.625
660.36114502,4649.7
660.635864258,4645.3
660.910644531,4666.075
661.185424805,4646.125
661.460205078,4661.2
661.734863281,4666.3
662.009521484,4659.45
662.284179688,4664.7
662.558776855,4658.425
662.833435059,4685.425
663.108032227,4677.05
663.382568359,4657.275
663.657043457,4680.225
663.93157959,4678.4
664.206054688,4661.5
664.48046875,4696.375
664.755004883,4688.375
665.02935791,4687.05
665.303710938,4721.575
665.578125,4705.425
665.852416992,4710.9
666.126708984,4691.875
666.401062012,4705.925
666.675292969,4718.65
666.949462891,4712.65
667.223754883,4704.375
667.497924805,4729.25
667.772094727,4732.525
668.046264648,4695.375
668.3203125,4746.65
668.594421387,4746.875
668.868469238,4733.975
669.14251709,4738.45
669.416503906,4744.45
669.690551758,4748.8
669.964477539,4732.6
670.23840332,4759.275
670.512329102,4749.7
670.786254883,4744.275
671.060058594,4760.55
671.333984375,4776.75
671.607788086,4776.95
671.881530762,4770.95
672.155334473,4759.15
672.429077148,4784.6
672.702758789,4799.45
672.97644043,4769.625
673.25012207,4759.75
673.523742676,4750.6
673.797302246,4762.075
674.070922852,4797.6
674.344482422,4794.95
674.618041992,4787.0
674.891601562,4789.95
675.165100098,4790.2
675.438476562,4771.525
675.711975098,4804.625
675.985412598,4775.3
676.258789062,4762.375
676.532165527,4777.65
676.805480957,4778.525
677.078796387,4795.575
677.352111816,4789.15
677.625366211,4789.825
677.898620605,4778.6
678.171875,4824.25
678.445007324,4780.7
678.718200684,4798.85
678.991394043,4803.725
679.264404297,4804.1
679.537536621,4846.75
679.81060791,4808.2
680.083679199,4815.65
680.356689453,4817.1
680.629699707,4815.925
680.902648926,4789.8
681.175598145,4822.6
681.448547363,4840.175
681.721435547,4813.075
681.99420166,4809.05
682.267150879,4799.3
682.539916992,4836.425
682.812744141,4814.325
683.085510254,4796.9
683.358215332,4806.95
683.63092041,4789.85
683.903625488,4795.875
684.176330566,4802.6
684.448913574,4784.175
684.721557617,4781.3
684.99420166,4836.625
685.266662598,4802.65
685.539245605,4817.0
685.811767578,4846.775
686.084289551,4829.1
686.356689453,4837.15
686.629150391,4855.775
686.901550293,4885.3
687.17401123,4871.4
687.446350098,4885.0
687.718688965,4897.575
687.990966797,4885.6
688.263305664,4907.375
688.535522461,4879.6
688.807739258,4892.625
689.079956055,4915.1
689.352172852,4921.775
689.624328613,4894.325
689.896484375,4943.875
690.168518066,4949.55
690.440612793,4926.825
690.71270752,4942.775
690.984741211,4962.875
691.256713867,4972.425
691.528747559,4972.9
691.800720215,4973.8
692.072631836,4969.9
692.344543457,5001.7
692.616394043,4993.65
692.888244629,5000.4
693.160095215,5023.85
693.431945801,5036.075
693.703674316,5015.125
693.975463867,5017.85
694.247131348,5043.375
694.518859863,5022.275
694.790588379,5032.175
695.062255859,5047.125
695.33380127,5031.725
695.60546875,5055.45
695.87701416,5061.525
696.148498535,5059.575
696.42010498,5089.35
696.691589355,5087.65
696.96307373,5101.325
697.234558105,5112.45
697.50592041,5097.025
697.777282715,5117.875
698.048706055,5098.325
698.320068359,5159.25
698.591308594,5137.8
698.862670898,5125.55
699.133972168,5157.4
699.405151367,5150.225
699.676391602,5177.925
699.947570801,5147.9
700.21875,5157.1
700.489868164,5173.95
700.761047363,5163.925
701.032104492,5199.75
701.303100586,5172.2
701.57421875,5196.225
701.845214844,5211.9
702.116149902,5212.5
702.387207031,5202.95
702.65814209,5227.025
702.928955078,5250.5
703.199951172,5224.3
703.47076416,5210.125
703.741577148,5210.55
704.012451172,5239.875
704.28314209,5254.325
704.553955078,5234.275
704.824707031,5270.425
705.095397949,5304.75
705.366027832,5274.225
705.63671875,5282.025
705.907348633,5268.15
706.17791748,5275.925
706.448486328,5284.325
706.719055176,5302.475
706.989562988,5324.35
707.260131836,5333.55
707.530517578,5357.9
707.800964355,5359.75
708.071411133,5326.9
708.341796875,5322.625
708.612182617,5335.275
708.882446289,5325.0
709.152893066,5319.65
709.423156738,5338.8
709.693359375,5342.6
709.963623047,5347.375
710.233825684,5347.65
710.503967285,5345.475
710.774169922,5371.65
711.044311523,5333.775
711.31439209,5350.8
711.584533691,5347.75
711.854553223,5357.35
712.124572754,5381.8
712.39465332,5363.3
712.664611816,5385.675
712.934509277,5414.125
713.204467773,5399.825
713.474365234,5425.425
713.74420166,5388.55
714.014099121,5412.15
714.283874512,5410.675
714.553710938,5453.725
714.823486328,5430.6
715.093200684,5439.375
715.362915039,5438.275
715.632629395,5417.55
715.902282715,5426.125
716.171875,5409.35
716.441589355,5397.025
716.711181641,5385.175
716.980712891,5421.825
717.250244141,5428.275
717.519775391,5440.7
717.78918457,5441.275
718.058654785,5461.05
718.328125,5493.45
718.597473145,5468.775
718.866882324,5454.725
719.136230469,5487.375
719.405578613,5510.4
719.674865723,5516.075
719.944152832,5492.725
720.213439941,5479.5
720.48260498,5488.675
720.75177002,5513.7
721.020996094,5544.4
721.290100098,5524.65
721.559204102,5519.5
721.828308105,5530.2
722.097351074,5518.125
722.366455078,5497.175
722.635437012,5504.5
722.904418945,5482.675
723.173400879,5520.95
723.442321777,5534.225
723.711181641,5535.35
723.980102539,5549.475
724.248962402,5557.35
724.51776123,5532.45
724.786560059,5559.425
725.055358887,5544.025
725.324035645,5572.275
725.592834473,5533.45
725.86151123,5546.2
726.130187988,5555.4
726.398803711,5554.85
726.667419434,5577.875
726.935974121,5563.95
727.204528809,5546.225
727.473083496,5543.85
727.741638184,5529.1
728.010070801,5519.575
728.278564453,5510.975
728.546936035,5523.0
728.815368652,5489.3
729.08380127,5420.925
729.352111816,5440.975
729.620361328,5375.175
729.88873291,5414.725
730.156982422,5457.575
730.425231934,5440.7
730.693481445,5442.95
730.961669922,5515.025
731.229797363,5529.575
731.49798584,5552.725
731.766113281,5599.525
732.034118652,5610.075
732.302246094,5658.25
732.570251465,5689.025
732.838256836,5672.75
733.106262207,5765.475
733.374145508,5784.975
733.642089844,5837.7
733.909973145,5869.8
734.177856445,5904.175
734.445678711,5956.25
734.713562012,6036.675
734.981323242,6037.25
735.249084473,6077.975
735.516845703,6167.875
735.784545898,6223.95
736.052185059,6251.45
736.319885254,6322.925
736.587524414,6347.975
736.855102539,6370.1
737.122619629,6483.875
737.390197754,6509.125
737.657714844,6573.55
737.925170898,6610.95
738.192749023,6692.375
738.460144043,6755.7
738.727539062,6759.475
738.994995117,6849.025
739.262329102,6895.65
739.529663086,6977.6
739.79699707,7025.875
740.06427002,7054.8
740.331481934,7107.9
740.598754883,7169.625
740.865905762,7177.325
741.133056641,7286.125
741.40032959,7304.6
741.667358398,7353.7
741.934448242,7370.825
742.201599121,7406.75
742.468566895,7478.275
742.735534668,7540.25
743.002563477,7535.9
743.26953125,7523.25
743.536437988,7580.05
743.803405762,7665.475
744.0703125,7643.8
744.337097168,7730.8
744.604003906,7670.125
744.870727539,7725.55
745.137512207,7771.4
745.40423584,7785.375
745.670959473,7789.0
745.93762207,7799.0
746.204284668,7841.15
746.470947266,7843.45
746.737548828,7843.425
747.004089355,7895.575
747.270751953,7908.575
747.53717041,7929.325
747.803710938,7880.7
748.070251465,7883.05
748.336608887,7876.675
748.603027344,7869.475
748.869445801,7863.05
749.135803223,7918.125
749.402099609,7893.6
749.668457031,7912.525
749.934753418,7869.8
750.20098877,7885.45
750.467224121,7921.1
750.733459473,7883.65
750.999572754,7879.55
751.26574707,7837.65
751.531860352,7871.4
751.797912598,7854.15
752.064025879,7801.475
752.330078125,7837.4
752.596069336,7787.175
752.862060547,7794.825
753.127990723,7811.875
753.393920898,7783.85
753.659912109,7779.925
753.925720215,7824.625
754.19152832,7789.55
754.457397461,7759.725
754.723144531,7709.6
754.988952637,7698.2
755.254699707,7751.225
755.520385742,7744.975
755.786071777,7724.175
756.051696777,7708.55
756.317382812,7700.125
756.582946777,7665.25
756.848510742,7697.1
757.114074707,7664.75
757.379577637,7646.6
757.645080566,7720.25
757.910583496,7706.775
758.175964355,7660.85
758.441345215,7645.825
758.706848145,7545.3
758.972106934,7555.375
759.237426758,7566.375
759.502807617,7614.2
759.768005371,7606.45
760.03326416,7588.0
760.298522949,7525.7
760.563659668,7561.425
760.828857422,7560.25
761.093994141,7543.1
761.359130859,7512.575
761.624206543,7499.525
761.889282227,7492.425
762.15423584,7476.65
762.419250488,7489.075
762.684265137,7452.7
762.949157715,7431.225
763.214050293,7426.1
763.479003906,7422.3
763.743835449,7435.675
764.008666992,7416.55
764.2734375,7413.375
764.538208008,7432.375
764.802978516,7481.175
765.067687988,7492.1
765.332397461,7419.45
765.597045898,7390.025
765.861694336,7395.725
766.126342773,7380.3
766.390930176,7374.975
766.655395508,7352.7
766.920043945,7332.15
767.184509277,7333.65
767.448974609,7348.225
767.713439941,7348.825
767.977783203,7285.075
768.2421875,7341.75
768.506591797,7311.725
768.770874023,7391.625
769.03515625,7337.225
769.299499512,7349.5
769.563720703,7349.0
769.827941895,7333.35
770.092163086,7312.625
770.356323242,7296.4
770.620483398,7318.925
770.88458252,7350.775
771.148681641,7342.825
771.412719727,7339.75
771.676757812,7351.375
771.940734863,7304.7
772.204711914,7298.85
772.468688965,7299.825
772.73260498,7286.15
772.996459961,7305.425
773.260314941,6501.175
773.524169922,858.775
773.787963867,147.725
774.051696777,124.725
774.315551758,121.45
774.579223633,122.55
774.842895508,122.125
775.106567383,123.725
775.370239258,122.075
775.633789062,124.725
775.897399902,126.925
776.160949707,123.1
776.424499512,124.775
776.687988281,126.45
776.951477051,126.825
777.214904785,123.525
777.47833252,122.2
