191.299911499,101.175
191.603515625,104.875
191.907119751,95.3
192.210693359,105.55
192.514251709,96.35
192.817810059,103.2
193.121368408,104.0
193.42489624,105.6
193.728408813,99.525
194.031936646,98.725
194.33543396,95.75
194.638916016,110.925
194.94241333,100.225
195.245880127,99.65
195.549331665,97.125
195.852767944,101.175
196.156204224,189.925
196.459625244,183.65
196.763015747,185.125
197.066436768,195.825
197.369812012,185.25
197.673187256,186.55
197.9765625,183.625
198.279922485,188.175
198.583251953,176.85
198.886581421,184.275
199.18989563,192.775
199.493209839,190.35
199.79649353,182.3
200.09979248,194.0
200.403076172,186.075
200.706314087,186.875
201.009567261,188.3
201.312820435,189.0
201.616027832,179.3
201.919235229,174.25
202.222457886,184.1
202.525634766,185.3
202.828826904,178.575
203.132003784,179.925
203.435150146,178.2
203.738296509,177.35
204.041412354,175.6
204.344558716,184.875
204.647659302,185.0
204.950759888,186.425
205.253845215,182.65
205.556930542,179.7
205.859985352,183.6
206.163024902,182.3
206.466079712,182.275
206.769104004,191.325
207.072113037,185.275
207.375137329,188.725
207.678131104,186.2
207.981109619,187.675
208.284088135,180.275
208.587036133,187.15
208.889984131,188.85
209.19291687,189.35
209.495849609,190.875
209.798751831,190.825
210.101654053,187.0
210.404556274,192.025
210.707427979,185.125
211.010269165,199.475
211.31312561,195.15
211.615982056,193.725
211.918807983,195.575
212.221618652,196.1
212.524429321,189.125
212.827224731,201.2
213.130004883,199.475
213.432769775,201.925
213.735534668,196.775
214.038269043,200.5
214.341003418,200.375
214.643737793,205.2
214.946456909,204.2
215.249145508,205.95
215.551834106,210.225
215.854507446,212.475
216.157165527,210.625
216.45980835,209.125
216.762451172,213.95
217.065078735,216.95
217.36769104,218.25
217.670303345,222.025
217.972885132,224.325
218.275466919,224.0
218.578048706,219.4
218.880599976,231.75
219.183120728,233.9
219.485656738,233.775
219.788192749,250.775
220.090682983,266.1
220.393188477,283.625
220.695663452,320.825
220.998138428,348.25
221.300582886,388.675
221.603042603,426.4
221.905487061,483.275
222.207901001,543.325
222.510299683,616.575
222.812728882,699.175
223.115097046,782.95
223.41746521,879.575
223.719848633,977.525
224.022171021,1070.275
224.324508667,1178.975
224.626846313,1310.625
224.929168701,1419.35
225.231460571,1536.225
225.533737183,1657.825
225.836013794,1779.25
226.138290405,1872.625
226.440536499,1982.275
226.742767334,2114.8
227.044998169,2209.5
227.347213745,2323.4
227.649429321,2421.45
227.951629639,2510.15
228.253799438,2613.875
228.555953979,2687.975
228.858123779,2768.15
229.160263062,2846.625
229.462371826,2916.25
229.764511108,2997.675
230.066619873,3061.9
230.36869812,3130.15
230.670776367,3217.275
230.972854614,3276.95
231.274902344,3364.65
231.576950073,3441.425
231.878967285,3507.95
232.180999756,3605.95
232.48298645,3726.05
232.784988403,3771.75
233.086975098,3862.05
233.388946533,3933.35
233.69090271,4020.125
233.992858887,4111.875
234.294769287,4133.6
234.596694946,4212.75
234.898605347,4290.725
235.200500488,4332.275
235.502380371,4381.5
235.804244995,4448.7
236.106109619,4469.025
236.407958984,4518.925
236.709777832,4580.225
237.011581421,4609.9
237.313400269,4636.85
237.615203857,4664.1
237.916976929,4695.2
238.21875,4733.65
238.520507812,4778.3
238.822250366,4804.9
239.12399292,4852.325
239.425704956,4884.8
239.727401733,4867.25
240.02911377,4917.9
240.330780029,4899.225
240.632446289,4961.875
240.93409729,4968.65
241.23576355,5041.475
241.537384033,5043.45
241.839004517,5065.725
242.140594482,5101.0
242.442199707,5137.225
242.743774414,5175.5
243.045333862,5218.725
243.346923828,5236.125
243.648452759,5275.775
243.949966431,5277.875
244.251495361,5326.325
244.552993774,5329.35
244.854492188,5303.75
245.155975342,5316.15
245.457443237,5341.65
245.758880615,5337.125
246.060333252,5313.95
246.36177063,5312.15
246.66317749,5297.975
246.964569092,5292.875
247.265945435,5286.575
247.567337036,5265.95
247.86869812,5288.45
248.170059204,5291.625
248.471389771,5298.625
248.772705078,5307.475
249.074035645,5356.925
249.375335693,5353.175
249.676620483,5383.175
249.977890015,5427.9
250.279159546,5508.775
250.58039856,5532.45
250.881637573,5572.7
251.182876587,5615.125
251.484069824,5700.475
251.785263062,5763.275
252.086456299,5830.6
252.387619019,5882.225
252.688781738,5930.8
252.989929199,5996.2
253.291061401,6051.55
253.592178345,6146.425
253.893280029,6202.375
254.194366455,6276.375
254.49546814,6301.425
254.796524048,6314.45
255.097579956,6360.075
255.398620605,6398.475
255.699645996,6445.25
256.000640869,6428.8
256.30166626,6460.3
256.602661133,6496.725
256.903656006,6474.75
257.204589844,6491.875
257.505523682,6440.05
257.80645752,6458.15
258.107391357,6450.675
258.408294678,6409.925
258.709228516,6365.125
259.010070801,6322.8
259.310943604,6333.175
259.611846924,6256.6
259.912658691,6193.275
260.213500977,6140.225
260.514343262,6083.825
260.815124512,6036.175
261.115936279,5989.3
261.416717529,5964.675
261.717468262,5891.8
262.018218994,5860.9
262.318969727,5853.35
262.619689941,5858.725
262.920410156,5872.975
263.221130371,5902.225
263.521789551,5925.0
263.822479248,5923.875
264.123138428,6010.125
264.42376709,5992.9
264.72442627,5958.1
265.025054932,5953.425
265.325622559,5943.725
265.626251221,5948.725
265.926818848,5877.9
266.227386475,5815.575
266.527954102,5760.625
266.828460693,5776.55
267.12902832,5648.075
267.429534912,5623.45
267.730010986,5571.675
268.030517578,5497.05
268.330993652,5439.525
268.631439209,5388.3
268.931915283,5363.675
269.232299805,5325.825
269.532745361,5291.175
269.8331604,5242.425
270.133544922,5183.375
270.433929443,5187.15
270.734313965,5138.65
271.034637451,5118.9
271.334991455,5109.975
271.635314941,5128.75
271.935638428,5133.025
272.235931396,5132.875
272.536254883,5176.025
272.836486816,5217.35
273.136749268,5272.45
273.437011719,5328.75
273.737213135,5383.7
274.037445068,5467.375
274.337677002,5527.725
274.6378479,5601.575
274.938049316,5699.625
275.238220215,5764.775
275.538360596,5880.725
275.838500977,5920.5
276.138641357,6048.225
276.438751221,6082.5
276.738830566,6145.0
277.03894043,6190.775
277.338989258,6269.425
277.639038086,6373.125
277.939056396,6374.825
278.239105225,6431.6
278.539093018,6524.525
278.839141846,6534.75
279.139129639,6572.775
279.439086914,6641.725
279.739044189,6666.175
280.039001465,6712.275
280.338928223,6741.45
280.63885498,6782.875
280.938781738,6818.825
281.238647461,6832.775
281.538513184,6846.4
281.838409424,6867.3
282.138244629,6891.25
282.438079834,6862.275
282.737945557,6915.1
283.037719727,6933.075
283.337524414,6934.35
283.637298584,6942.6
283.937072754,6932.875
284.236816406,6945.025
284.536560059,6913.4
284.836303711,6917.325
285.136016846,6975.45
285.43572998,6969.575
285.735412598,6939.575
286.035064697,6945.2
286.334747314,6979.775
286.634368896,6959.95
286.933990479,6909.925
287.233642578,6834.85
287.533203125,6850.05
287.832824707,6796.325
288.132385254,6694.025
288.431945801,6573.275
288.731506348,6451.925
289.031036377,6320.375
289.330566406,6219.1
289.630065918,6213.325
289.92956543,6188.175
290.229034424,6243.35
290.528503418,6357.9
290.827941895,6530.325
291.127380371,6631.25
291.42678833,6733.45
291.726226807,6835.825
292.025604248,6852.125
292.324981689,6911.45
292.624359131,6899.1
292.923736572,6911.05
293.223052979,6912.625
293.522369385,6927.675
293.821685791,6871.475
294.12097168,6844.8
294.420257568,6802.5
294.719543457,6801.725
295.018768311,6797.775
295.318023682,6731.4
295.617248535,6668.9
295.916442871,6628.425
296.215667725,6544.95
296.514862061,6451.6
296.813995361,6269.15
297.11315918,6097.225
297.412322998,5967.35
297.711425781,5969.0
298.010559082,6110.05
298.309631348,6267.4
298.608734131,6442.125
298.907806396,6607.25
299.206848145,6719.975
299.505889893,6781.425
299.804901123,6867.725
300.103912354,6936.075
300.402954102,6990.375
300.701904297,7038.725
301.00088501,7089.425
301.299835205,7165.75
301.5987854,7182.575
301.897735596,7245.05
302.196624756,7292.775
302.495513916,7343.0
302.794403076,7381.0
303.093292236,7423.55
303.392120361,7492.325
303.690979004,7550.825
303.989837646,7604.0
304.288604736,7629.15
304.587402344,7605.975
304.886199951,7669.2
305.184967041,7683.275
305.483734131,7719.95
305.782501221,7759.925
306.081176758,7790.5
306.37991333,7805.525
306.678619385,7829.9
306.977294922,7822.9
307.275970459,7848.45
307.574645996,7862.15
307.873260498,7827.675
308.171875,7852.7
308.470489502,7837.775
308.769104004,7771.075
309.067687988,7785.925
309.366241455,7780.2
309.664794922,7738.325
309.963348389,7770.225
310.261871338,7761.225
310.560394287,7748.9
310.858856201,7781.275
311.157348633,7800.4
311.455810547,7814.45
311.754272461,7820.775
312.052703857,7895.225
312.351135254,7897.775
312.649536133,7918.925
312.947937012,7900.275
313.246307373,7916.325
313.544647217,7919.75
313.843017578,7884.475
314.141387939,7871.35
314.439697266,7872.925
314.738006592,7830.4
315.036315918,7740.675
315.334564209,7680.5
315.6328125,7630.525
315.931091309,7581.025
316.229309082,7486.4
316.527526855,7362.2
316.825744629,7345.325
317.123901367,7255.625
317.422088623,7207.45
317.720245361,7227.775
318.0184021,7223.95
318.316497803,7265.15
318.614654541,7292.475
318.912750244,7375.325
319.21081543,7363.55
319.50894165,7391.05
319.806945801,7383.85
320.104980469,7361.725
320.403045654,7381.65
320.701049805,7376.175
320.999023438,7352.225
321.297027588,7303.125
321.595001221,7305.125
321.892913818,7261.325
322.190887451,7198.975
322.488830566,7163.4
322.786712646,7120.7
323.084625244,7044.025
323.382507324,7030.25
323.680358887,6956.525
323.978210449,6871.05
324.276062012,6840.75
324.573852539,6800.775
324.871643066,6756.05
325.169464111,6684.7
325.467224121,6637.825
325.764984131,6612.8
326.062744141,6521.025
326.360473633,6452.125
326.658203125,6397.425
326.955871582,6325.3
327.253570557,6266.775
327.551239014,6231.05
327.848907471,6169.675
328.146514893,6120.45
328.444152832,6077.3
328.741790771,6029.4
329.039367676,5974.575
329.336914062,5942.225
329.634521484,5866.9
329.932067871,5838.85
330.229553223,5736.975
330.527160645,5717.675
330.824615479,5677.45
331.12210083,5609.0
331.419586182,5518.85
331.717041016,5448.4
332.014465332,5391.45
332.311920166,5367.85
332.609313965,5312.575
332.906707764,5298.6
333.204101562,5292.475
333.501495361,5283.725
333.798828125,5364.55
334.096160889,5371.275
334.39352417,5433.775
334.690795898,5471.325
334.988098145,5530.9
335.285400391,5564.925
335.582641602,5589.675
335.879882812,5615.525
336.177124023,5602.05
336.474334717,5679.425
336.77154541,5668.2
337.068725586,5696.775
337.365905762,5694.95
337.66305542,5709.525
337.960205078,5738.625
338.257324219,5750.35
338.554443359,5750.5
338.8515625,5766.4
339.148590088,5765.575
339.445648193,5764.15
339.742736816,5738.625
340.039764404,5729.15
340.336761475,5705.6
340.63381958,5674.65
340.930755615,5631.45
341.227722168,5571.675
341.524688721,5493.325
341.821624756,5458.75
342.118560791,5481.75
342.415496826,5568.675
342.712402344,5674.425
343.009246826,5801.95
343.306121826,5881.675
343.602966309,5952.275
343.899810791,6025.275
344.196624756,6116.175
344.493438721,6097.4
344.79019165,6155.75
345.086975098,6211.625
345.383758545,6251.075
345.680480957,6240.575
345.977203369,6266.25
346.273956299,6309.675
346.570617676,6296.875
346.86730957,6283.5
347.163970947,6266.275
347.460601807,6312.85
347.757232666,6325.575
348.053894043,6317.775
348.350463867,6248.9
348.647064209,6224.475
348.943634033,6214.65
349.24017334,6233.575
349.536712646,6203.55
349.833251953,6210.85
350.129760742,6153.9
350.426208496,6159.275
350.722747803,6144.1
351.019195557,6121.925
351.315612793,6097.875
351.612060547,6061.25
351.908508301,6011.925
352.204864502,5965.375
352.501281738,5922.075
352.797637939,5873.0
353.093963623,5784.55
353.390319824,5750.05
353.686645508,5664.6
353.982940674,5609.525
354.27923584,5562.425
354.575531006,5522.5
354.871765137,5528.75
355.167999268,5482.0
355.464233398,5505.575
355.760437012,5501.575
356.056640625,5478.275
356.352813721,5519.9
356.648956299,5493.525
356.945129395,5543.025
357.241271973,5515.9
357.537384033,5555.325
357.833496094,5504.1
358.129577637,5486.25
358.425628662,5445.35
358.721679688,5441.4
359.017730713,5430.175
359.313720703,5365.375
359.609710693,5350.375
359.905761719,5284.525
360.201721191,5267.9
360.497650146,5197.025
360.793609619,5191.775
361.089538574,5128.05
361.385437012,5058.475
361.681365967,5022.575
361.977233887,4974.575
362.273071289,4926.975
362.568908691,4822.075
362.864746094,4726.725
363.160552979,4617.35
363.456359863,4453.35
363.752166748,4330.85
364.047912598,4262.4
364.343658447,4234.375
364.639434814,4253.6
364.935119629,4285.575
365.230834961,4342.55
365.526550293,4375.625
365.822174072,4385.475
366.117858887,4388.375
366.413482666,4453.1
366.709075928,4463.025
367.004730225,4385.35
367.300292969,4365.15
367.595855713,4421.1
367.891448975,4320.7
368.186981201,4222.6
368.482513428,4195.375
368.778015137,4189.9
369.073547363,4144.65
369.36895752,4156.6
369.664428711,4065.575
369.95993042,3966.325
370.255310059,3924.125
370.550720215,3907.55
370.846160889,3859.525
371.14151001,3839.5
371.436859131,3828.125
371.73223877,3800.775
372.027557373,3769.225
372.322875977,3711.85
372.618164062,3685.975
372.913482666,3678.525
373.208709717,3649.6
373.503967285,3594.525
373.799194336,3554.1
374.094421387,3554.675
374.389648438,3529.95
374.684844971,3524.3
374.979980469,3562.725
375.275146484,3577.15
375.570281982,3583.05
375.865386963,3601.325
376.160522461,3552.525
376.455596924,3561.575
376.750640869,3643.075
377.045715332,3636.925
377.340759277,3685.4
377.635772705,3728.925
377.93081665,3773.175
378.225769043,3814.1
378.520751953,3875.775
378.815734863,3847.275
379.110656738,3983.5
379.405548096,4145.65
379.700500488,4013.8
379.995391846,3816.45
380.290252686,3872.575
380.585083008,3954.225
380.879974365,3980.725
381.17477417,3889.55
381.469543457,3845.75
381.764404297,3831.85
382.059143066,3877.55
382.353912354,3949.5
382.648651123,4026.675
382.943389893,4033.525
383.238067627,3870.3
383.532775879,3846.4
383.827484131,3815.275
384.12210083,3812.15
384.416778564,3749.85
384.711425781,3681.35
385.006011963,3691.55
385.300628662,3683.65
385.595184326,3765.95
385.88973999,3849.625
386.184295654,3928.075
386.478820801,4016.95
386.77331543,4096.125
387.067840576,4195.175
387.362335205,4268.125
387.656768799,4332.325
387.951202393,4366.325
388.245635986,4437.525
388.540039062,4506.25
388.834472656,4547.3
389.128875732,4470.475
389.423187256,4274.775
389.717559814,4231.0
390.011871338,4321.125
390.306182861,4355.5
390.600463867,4358.8
390.894775391,4424.1
391.189025879,4462.225
391.48324585,4433.55
391.777526855,4485.05
392.071685791,4685.0
392.365875244,4767.525
392.660064697,4824.075
392.95425415,5137.3
393.248382568,5124.65
393.542510986,4692.3
393.836608887,4525.825
394.130706787,4519.95
394.424804688,4472.0
394.71887207,4591.8
395.012878418,4571.275
395.306915283,4471.975
395.600921631,4418.3
395.894927979,4367.325
396.188903809,4417.05
396.482879639,4433.55
396.776794434,4619.925
397.070739746,4584.55
397.364654541,4605.975
397.658538818,4959.925
397.952423096,4976.55
398.246307373,4947.8
398.540100098,5444.475
398.833953857,5302.025
399.127746582,4880.175
399.421508789,4871.55
399.715301514,4821.925
400.009063721,4735.375
400.30279541,4603.375
400.596496582,4534.35
400.890258789,4678.85
401.183929443,4776.825
401.47756958,4659.425
401.771240234,4460.375
402.064880371,4465.35
402.35848999,4505.8
402.652130127,4400.425
402.945678711,4479.55
403.239257812,4429.6
403.532775879,4363.4
403.82635498,4419.625
404.119842529,4351.15
404.413360596,4340.05
404.706848145,4379.675
405.000274658,4325.55
405.293762207,4401.475
405.587188721,4425.875
405.880584717,4291.775
406.17401123,4128.95
406.467407227,3937.0
406.760742188,3956.775
407.054107666,3980.075
407.347442627,3914.075
407.640716553,3909.1
407.934051514,3963.175
408.227325439,4025.375
408.520568848,4209.975
408.813842773,4290.775
409.107086182,4121.55
409.400238037,4058.2
409.693450928,3984.5
409.986633301,4127.175
410.279754639,4047.725
410.572875977,3772.1
410.86605835,3694.55
411.159118652,3714.3
411.452209473,3735.75
411.745330811,3607.825
412.038360596,3537.5
412.331390381,3551.625
412.624420166,3611.825
412.917388916,3506.425
413.210388184,3372.05
413.503387451,3329.225
413.796295166,3242.675
414.089233398,3100.125
414.382141113,3011.35
414.675048828,3005.8
414.967926025,3007.875
415.260803223,2958.8
415.55368042,2994.925
415.846466064,2963.375
416.139282227,3034.325
416.432098389,3137.975
416.724853516,3144.275
417.017608643,3077.0
417.31036377,3090.225
417.603088379,3220.075
417.895782471,3177.95
418.188476562,3167.275
418.481140137,3238.7
418.773803711,3260.825
419.066436768,3249.95
419.359039307,3314.625
419.651641846,3304.075
419.944244385,3318.05
420.236816406,3268.9
420.529327393,3473.575
420.821899414,3535.375
421.114379883,3463.775
421.406860352,3712.1
421.699371338,3914.55
421.991821289,3872.275
422.284240723,3684.35
422.576721191,3539.075
422.869110107,3455.15
423.161468506,3389.45
423.453857422,3433.975
423.74621582,3330.3
424.038543701,3199.6
424.330871582,3161.85
424.623168945,3113.35
424.915435791,3233.925
425.207702637,3205.575
425.499969482,3154.975
425.792205811,3112.325
426.084411621,2873.3
426.376617432,2959.7
426.668762207,3002.275
426.9609375,2897.15
427.253082275,3013.825
427.545196533,3393.275
427.837310791,3130.925
428.129425049,2868.625
428.421447754,3060.4
428.713531494,3063.3
429.005554199,3049.075
429.297576904,3055.875
429.589599609,3450.6
429.881561279,3747.55
430.173522949,3535.45
430.465484619,3496.55
430.757415771,3571.075
431.049316406,3355.35
431.341186523,3143.125
431.633117676,3041.975
431.924957275,2787.525
432.21673584,2677.65
432.508636475,2819.575
432.800415039,2835.425
433.092163086,2745.2
433.383972168,2720.6
433.675689697,3354.675
433.967437744,3783.7
434.259155273,2931.375
434.550872803,2659.45
434.842498779,2706.275
435.134185791,2823.525
435.425842285,2856.95
435.717437744,2748.875
436.009063721,2586.2
436.30065918,2721.325
436.592224121,3021.575
436.883758545,2836.6
437.175323486,2603.975
437.466827393,2590.45
437.758331299,2587.425
438.049804688,2615.85
438.341247559,2674.825
438.63269043,2755.625
438.924163818,2736.65
439.215515137,2713.8
439.50692749,2613.55
439.798309326,2615.825
440.089660645,2628.45
440.380981445,2541.05
440.672332764,2549.725
440.963623047,2771.525
441.254882812,3201.125
441.546173096,3360.05
441.837402344,3128.15
442.128631592,2968.8
442.41986084,2957.025
442.711029053,2828.875
443.002197266,2896.55
443.293365479,3062.45
443.584503174,3185.75
443.875610352,3159.475
444.166717529,2918.975
444.457794189,2973.725
444.748840332,2960.825
445.039916992,2917.85
445.330932617,2997.6
445.621948242,2864.775
445.912963867,2684.175
446.203918457,2902.375
446.494812012,3099.7
446.785827637,2923.0
447.076721191,2747.65
447.367584229,2729.725
447.658447266,2705.375
447.949371338,2770.425
448.24017334,2636.725
448.530975342,2586.375
448.821838379,2740.025
449.112579346,2797.375
449.40335083,2752.25
449.694152832,2772.975
449.984863281,2770.575
450.27557373,2711.575
450.56628418,2775.225
450.856933594,2796.125
451.147583008,2654.8
451.438262939,2541.625
451.728881836,2733.775
452.019470215,2814.75
452.310089111,2623.175
452.600646973,2651.475
452.891174316,2701.025
453.181732178,2539.175
453.472229004,2421.275
453.762695312,2528.375
454.053222656,2546.775
454.343658447,2426.725
454.634063721,2376.85
454.924530029,2541.9
455.214935303,2666.45
455.505279541,2715.45
455.795715332,2597.725
456.086029053,2412.35
456.376312256,2401.7
456.666687012,2440.375
456.956939697,2529.7
457.247192383,2521.75
457.537445068,2601.925
457.827728271,2756.55
458.117919922,2699.2
458.408081055,2633.05
458.698303223,2780.9
458.988433838,2721.4
459.278564453,2571.475
459.568725586,2821.6
459.858825684,2933.1
460.148864746,2643.4
460.438995361,2608.95
460.729034424,2658.95
461.019042969,2664.775
461.309082031,2855.525
461.599060059,2731.075
461.889007568,2318.05
462.179016113,2155.475
462.468933105,2377.4
462.75881958,2479.3
463.048736572,2239.6
463.338592529,2490.6
463.628448486,2811.0
463.918365479,2551.15
464.2081604,2706.0
464.497924805,2661.4
464.787780762,2778.275
465.077514648,3051.5
465.367218018,2695.25
465.657012939,2893.125
465.946685791,3259.0
466.236358643,2904.4
466.526092529,2413.175
466.815734863,2412.95
467.105316162,2341.0
467.394927979,2370.875
467.684570312,2245.525
467.974121094,2320.775
468.263671875,2419.625
468.553222656,2221.15
468.842773438,2135.525
469.132232666,2032.65
469.42175293,2052.675
469.711212158,2039.55
470.000640869,1929.3
470.290100098,1975.45
470.579498291,2014.4
470.868835449,2016.85
471.158294678,1964.725
471.447601318,1964.15
471.736907959,2025.45
472.026275635,2079.4
472.315551758,2061.1
472.604797363,2057.85
472.894104004,2178.35
473.183319092,2274.05
473.47253418,2265.15
473.761779785,2272.7
474.05090332,2203.575
474.340087891,2156.175
474.629241943,2086.35
474.918365479,2245.275
475.207427979,2488.65
475.496551514,2511.625
475.785614014,2277.275
476.074645996,2092.425
476.363708496,2182.65
476.652679443,2300.975
476.941650391,2139.4
477.230682373,2003.95
477.519622803,2008.975
477.808502197,2154.55
478.097412109,2392.65
478.386352539,2339.825
478.675201416,2090.85
478.964050293,2000.5
479.25289917,2173.9
479.541717529,2234.15
479.830474854,2084.95
480.11932373,2410.95
480.408050537,2569.775
480.696777344,2222.725
480.985534668,2094.75
481.274200439,2167.9
481.562866211,2403.075
481.851593018,2420.475
482.140197754,2367.55
482.428833008,2232.475
482.717468262,2040.325
483.006011963,2068.75
483.294586182,2167.225
483.5831604,2215.45
483.871673584,2068.8
484.16015625,2207.75
484.448699951,2420.65
484.7371521,2470.0
485.02557373,2463.55
485.314025879,2233.3
485.602416992,3454.925
485.890777588,12261.0
486.179199219,10945.25
486.467559814,2943.7
486.755859375,2119.775
487.044219971,2486.375
487.332519531,2646.9
487.620758057,2271.325
487.908966064,2034.8
488.197265625,1852.775
488.485473633,1769.4
488.773651123,1863.8
489.061859131,1877.25
489.350006104,1823.8
489.638122559,1771.7
489.926300049,1791.775
490.214355469,1737.6
490.502441406,1690.125
490.790527344,1620.6
491.078552246,1802.25
491.366546631,1802.4
491.654602051,1581.3
491.942565918,1661.825
492.230499268,1699.35
492.518493652,1664.25
492.806396484,1689.125
493.094268799,1617.975
493.382202148,1643.475
493.670074463,1764.35
493.957885742,1611.15
494.245727539,1617.325
494.533508301,1754.275
494.821289062,1656.075
495.109100342,1528.55
495.396850586,1476.675
495.684539795,1433.9
495.972290039,1622.75
496.25994873,1934.075
496.547607422,1934.0
496.835296631,1771.625
497.122894287,1482.825
497.410522461,1407.6
497.6980896,1411.725
497.985687256,1380.5
498.273223877,1472.175
498.560760498,1543.5
498.848266602,1562.65
499.135772705,1534.15
499.423217773,1566.825
499.710693359,1670.675
499.998138428,1602.725
500.285522461,1457.675
500.572937012,1392.1
500.860290527,1440.125
501.147644043,1534.025
501.434997559,1737.225
501.722290039,1614.3
502.00958252,1404.675
502.296875,1638.9
502.584106445,1625.5
502.871337891,1467.4
503.158599854,1530.125
503.445770264,1606.95
503.732910156,1582.4
504.020141602,1410.8
504.307220459,1395.925
504.594329834,1424.575
504.881469727,1368.325
505.168518066,1434.2
505.455535889,1495.925
505.742614746,1386.875
506.029632568,1320.625
506.316589355,1498.675
506.603637695,1569.15
506.890563965,1391.825
507.177459717,1251.2
507.464385986,1173.25
507.751312256,1371.175
508.038146973,1440.375
508.325012207,1325.95
508.611877441,1368.775
508.898681641,1375.2
509.185424805,1247.275
509.472259521,1199.675
509.759002686,1276.1
510.045715332,1301.85
510.332458496,1259.575
510.619140625,1312.425
510.905761719,1229.525
511.192504883,1221.725
511.479095459,1255.025
511.765686035,1217.35
512.052307129,1140.15
512.338928223,1100.575
512.625427246,1150.0
512.91204834,1200.725
513.198486328,1172.05
513.484985352,1150.875
513.77142334,1086.3
514.057922363,1121.5
514.344299316,1125.325
514.63079834,1091.75
514.917175293,1077.75
515.203552246,989.275
515.489868164,973.875
515.776245117,1085.4
516.0625,1119.0
516.348815918,1041.725
516.635070801,1071.75
516.921325684,1125.575
517.207580566,1068.375
517.493774414,973.9
517.779968262,994.75
518.066101074,1024.275
518.352294922,979.575
518.638366699,988.65
518.924499512,1049.55
519.210632324,1122.475
519.496643066,1085.225
519.782714844,1005.925
520.068786621,976.725
520.354736328,931.6
520.640686035,902.9
520.926757812,953.85
521.212646484,1009.4
521.498535156,1009.65
521.784484863,970.725
522.0703125,906.45
522.356262207,927.825
522.642089844,994.9
522.927856445,980.1
523.213684082,977.925
523.499511719,976.9
523.78527832,1010.35
524.070983887,1063.975
524.356750488,1037.25
524.64239502,995.775
524.928039551,993.55
525.213806152,1017.775
525.499389648,994.6
525.784973145,1026.125
526.070617676,1069.425
526.356140137,1042.9
526.641723633,1039.825
526.927307129,1101.775
527.212768555,1106.375
527.498291016,1080.85
527.783752441,1079.0
528.069213867,1073.625
528.354675293,1092.2
528.640014648,1232.675
528.925476074,1294.675
529.21081543,1218.7
529.496154785,1204.25
529.781555176,1176.5
530.066833496,1186.7
530.352050781,1211.1
530.637390137,1197.6
530.922607422,1193.325
531.207824707,1194.925
531.493041992,1180.225
531.778198242,1246.225
532.063354492,1227.875
532.348571777,1174.45
532.633666992,1192.6
532.918762207,1267.6
533.203857422,1350.25
533.488891602,1370.125
533.773925781,1325.975
534.059020996,1294.675
534.343933105,1323.0
534.628967285,1297.1
534.91394043,1315.975
535.198852539,1321.4
535.483703613,1309.65
535.768676758,1260.275
536.053527832,1260.325
536.338317871,1215.35
536.62322998,1162.7
536.90802002,1144.6
537.192810059,1161.725
537.477539062,1233.675
537.762329102,1266.225
538.047058105,1313.25
538.331726074,1332.9
538.616455078,1325.725
538.901123047,1304.175
539.18572998,1352.625
539.470397949,1347.2
539.755004883,1338.175
540.039550781,1314.325
540.32409668,1277.575
540.608703613,1304.275
540.893188477,1401.975
541.17767334,1407.5
541.462158203,1412.85
541.746643066,1360.45
542.031066895,1400.75
542.315429688,1451.275
542.59979248,1439.25
542.884216309,1427.325
543.168579102,1415.125
543.452941895,1433.025
543.737243652,1473.675
544.021484375,1514.675
544.305725098,1519.225
544.590026855,1500.925
544.874267578,1505.05
545.158447266,1566.575
545.442626953,1484.325
545.726806641,1387.425
546.010925293,1424.05
546.29510498,1456.45
546.579162598,1442.375
546.863220215,1488.3
547.147277832,1542.6
547.431335449,1623.375
547.715332031,1670.225
547.999328613,1781.375
548.283325195,1785.45
548.567260742,1645.925
548.851135254,1630.05
549.135070801,1600.525
549.419006348,1515.8
549.702819824,1605.275
549.986755371,1665.9
550.270507812,1628.15
550.554321289,1683.35
550.83807373,1687.35
551.121826172,1652.525
551.405517578,1665.0
551.689331055,1769.15
551.973022461,1980.975
552.256652832,2050.975
552.540344238,1956.375
552.823974609,1928.7
553.107543945,1921.3
553.391174316,1963.1
553.674743652,2023.2
553.958251953,2030.775
554.241821289,2039.575
554.525268555,1994.475
554.808776855,1987.5
555.092285156,2161.875
555.375671387,2236.975
555.659057617,2226.875
555.942504883,2249.925
556.225891113,2281.775
556.509216309,2245.0
556.792541504,2169.425
557.075866699,2244.75
557.359130859,2275.275
557.64239502,2270.2
557.92565918,2345.05
558.208862305,2330.4
558.49206543,2265.125
558.77532959,2283.425
559.058410645,2335.575
559.341552734,2311.375
559.624694824,2369.125
559.907775879,2441.9
560.190856934,2552.825
560.473937988,2551.425
560.756896973,2581.325
561.039978027,2616.125
561.322937012,2571.2
561.605895996,2576.7
561.88885498,2537.175
562.171813965,2529.65
562.454650879,2535.3
562.737548828,2562.975
563.020446777,2628.5
563.303283691,2648.825
563.58605957,2687.925
563.868896484,2699.575
564.151672363,2743.7
564.434387207,2787.425
564.717163086,2744.025
564.99987793,2769.475
565.282531738,2830.875
565.565185547,2778.65
565.847839355,2782.8
566.130432129,2909.925
566.413085938,2880.4
566.695678711,2881.8
566.978149414,2993.025
567.260681152,3133.15
567.543273926,3211.175
567.825744629,3107.625
568.108154297,3145.4
568.390686035,3265.15
568.673095703,3367.45
568.955505371,3408.5
569.237854004,3453.3
569.520202637,3694.875
569.802490234,3901.4
570.084838867,3879.425
570.367126465,3725.025
570.649414062,3748.5
570.93170166,4068.05
571.213928223,4141.775
571.496154785,3916.45
571.778381348,4113.925
572.06048584,4356.025
572.342590332,3915.3
572.624755859,3600.4
572.906860352,3661.2
573.188903809,4305.0
573.470947266,4524.7
573.752990723,4284.825
574.03503418,4414.35
574.317016602,4776.95
574.598937988,4553.675
574.88092041,4428.125
575.162841797,4622.1
575.444763184,4267.15
575.726623535,4038.125
576.008483887,4068.9
576.290344238,4460.075
576.572143555,4646.9
576.853881836,4682.8
577.135681152,4586.675
577.417419434,4656.15
577.699157715,5470.85
577.980895996,5638.125
578.262573242,5010.5
578.544128418,4558.2
578.825866699,4505.725
579.107421875,4236.025
579.388977051,4380.15
579.670593262,4735.35
579.952148438,4585.475
580.233642578,4688.95
580.515197754,4787.25
580.796691895,4529.5
581.078125,4664.425
581.359619141,6068.75
581.640991211,6166.975
581.922363281,5309.85
582.203796387,5370.55
582.485107422,5007.025
582.766418457,4655.875
583.047790527,4501.85
583.329040527,4407.1
583.610290527,4285.75
583.891540527,4376.65
584.172790527,4661.25
584.453918457,4680.4
584.735107422,4757.7
585.016235352,5138.25
585.297363281,5111.675
585.578552246,4916.1
585.859619141,4877.375
586.140625,4660.85
586.421630859,4548.2
586.702697754,4575.55
586.983642578,4794.225
587.264648438,4943.925
587.545654297,4883.15
587.826477051,4813.175
588.107421875,4652.275
588.388305664,4683.9
588.669189453,4771.35
588.950012207,4643.075
589.230834961,4550.55
589.511657715,4612.675
589.792358398,4696.775
590.073120117,4718.05
590.353881836,4673.5
590.63458252,4698.25
590.915283203,4641.35
591.195922852,4646.35
591.4765625,4675.625
591.757202148,4710.4
592.037780762,4714.575
592.31829834,4705.975
592.598937988,4914.65
592.879394531,5040.975
593.159912109,4956.775
593.440429688,4931.975
593.720825195,4886.6
594.001281738,4871.2
594.281677246,4780.9
594.562072754,4801.25
594.842407227,4884.925
595.122802734,4902.6
595.403137207,4912.9
595.683410645,4863.225
595.963623047,4857.0
596.243896484,4827.3
596.524169922,4812.225
596.804382324,4831.425
597.084533691,4853.0
597.364746094,4877.85
597.644836426,4905.825
597.924987793,4886.95
598.205078125,4856.225
598.485107422,4864.85
598.765197754,4986.0
599.045227051,5019.8
599.325195312,4944.35
599.605224609,4881.625
599.885192871,4918.025
600.165100098,4979.025
600.445007324,4931.825
600.724914551,4900.1
601.004760742,4940.275
601.284667969,4936.7
601.56451416,4911.4
601.844238281,4913.15
602.124084473,4891.95
602.403808594,4896.6
602.683532715,4939.8
602.963256836,4930.075
603.242919922,4949.8
603.522583008,4996.875
603.802246094,4954.15
604.081848145,4924.25
604.36138916,4924.975
604.641052246,4934.925
604.920532227,4920.05
605.200073242,4927.375
605.479614258,4934.55
605.759094238,4977.725
606.038574219,4966.675
606.317932129,4897.725
606.597412109,4922.3
606.87677002,4923.325
607.15612793,4959.2
607.435546875,4926.175
607.714782715,4940.1
607.99407959,4900.225
608.273376465,4883.75
608.552612305,4912.45
608.831848145,4919.35
609.111083984,4902.425
609.390258789,4863.25
609.669433594,4887.375
609.948608398,4923.925
610.227722168,4911.65
610.506713867,4874.05
610.785888672,4886.625
611.064880371,4855.65
611.34387207,4869.95
611.622924805,4889.475
611.901916504,4850.375
612.180847168,4803.15
612.459777832,4795.525
612.738647461,4807.875
613.01751709,4797.05
613.296447754,4749.425
613.575317383,4712.575
613.854064941,4657.175
614.132873535,4599.325
614.411621094,4551.725
614.690368652,4504.2
614.969177246,4435.975
615.247802734,4383.225
615.526489258,4346.05
615.805175781,4251.525
616.08380127,4158.95
616.362365723,4072.55
616.640991211,4031.275
616.919555664,3980.7
617.198059082,4096.1
617.4765625,4319.5
617.755126953,4440.25
618.033569336,4443.975
618.311950684,4434.2
618.590454102,4433.2
618.868774414,4395.85
619.147155762,4400.9
619.425598145,4398.05
619.703857422,4401.45
619.982177734,4406.325
620.260498047,4393.9
620.538757324,4373.7
620.816955566,4349.575
621.095214844,4305.8
621.373413086,4319.25
621.651550293,4357.1
621.929748535,4376.6
622.207824707,4354.775
622.485900879,4376.45
622.764038086,4354.45
623.042053223,4366.4
623.320007324,4421.75
623.598083496,4406.975
623.876037598,4383.3
624.153991699,4376.425
624.432006836,4407.1
624.709838867,4410.55
624.987731934,4381.275
625.265563965,4365.4
625.543395996,4398.6
625.821228027,4433.1
626.098999023,4415.275
626.376831055,4456.1
626.654541016,4440.55
626.932250977,4497.6
627.209960938,4509.15
627.487670898,4525.8
627.765319824,4515.675
628.04296875,4546.25
628.320495605,4549.375
628.598083496,4526.7
628.875671387,4556.75
629.153259277,4576.325
629.430725098,4617.35
629.708251953,4603.125
629.985656738,4608.8
630.263122559,4634.125
630.540588379,4649.725
630.817932129,4680.15
631.095275879,4675.15
631.372680664,4708.8
631.649963379,4733.55
631.927246094,4765.425
632.204589844,4768.175
632.481811523,4833.6
632.759033203,4902.9
633.036254883,4889.575
633.313415527,4948.9
633.590576172,4987.3
633.867736816,5046.825
634.144836426,5111.75
634.421875,5137.875
634.698913574,5159.475
634.976013184,5195.1
635.252990723,5252.6
635.529968262,5266.6
635.807006836,5343.925
636.08392334,5312.325
636.360839844,5237.575
636.637756348,5150.9
636.914611816,5116.35
637.191467285,5084.925
637.468261719,5154.425
637.745056152,5109.6
638.021789551,5124.525
638.298583984,5119.525
638.575317383,5158.85
638.851989746,5146.975
639.12878418,5153.35
639.405395508,5129.85
639.682006836,5145.3
639.958618164,5152.9
640.235229492,5136.15
640.511779785,5159.375
640.788330078,5129.25
641.064880371,5114.45
641.341308594,5094.775
641.617797852,5090.775
641.894226074,5086.725
642.170654297,5115.775
642.44708252,5101.125
642.723388672,5086.075
642.999755859,5059.175
643.276123047,5068.3
643.552429199,5043.975
643.828674316,5051.5
644.104919434,5018.95
644.381164551,5012.85
644.657348633,4998.5
644.933532715,4966.75
645.209716797,4952.125
645.485839844,4944.0
645.761901855,4974.125
646.038024902,4941.45
646.314086914,4963.55
646.590087891,4946.325
646.866149902,4955.75
647.142150879,4907.45
647.41809082,4887.35
647.694030762,4878.675
647.969970703,4834.875
648.245788574,4850.55
648.521728516,4842.7
648.797546387,4814.3
649.073303223,4847.45
649.349182129,4823.225
649.624938965,4803.55
649.900634766,4793.025
650.176391602,4795.6
650.452087402,4776.175
650.727783203,4782.35
651.003479004,4788.5
651.279052734,4769.575
651.554626465,4745.45
651.83026123,4728.025
652.105773926,4724.875
652.381286621,4706.05
652.656860352,4705.5
652.932312012,4721.85
653.207763672,4691.25
653.483215332,4727.025
653.758605957,4698.375
654.033935547,4706.025
654.309326172,4690.05
654.584716797,4704.525
654.859985352,4678.875
655.135253906,4699.95
655.410583496,4730.925
655.685791016,5406.9
655.9609375,8475.725
656.236206055,8261.425
656.511291504,5448.575
656.786437988,4766.125
657.061645508,4691.75
657.336669922,4655.05
657.611694336,4672.65
657.886779785,4705.275
658.161804199,4681.9
658.436828613,4654.9
658.711791992,4655.875
658.986755371,4675.625
659.261657715,4652.55
659.536621094,4661.625
659.811401367,4669.525
660.086303711,4686.575
660.36114502,4654.275
660.635864258,4663.05
660.910644531,4677.05
661.185424805,4647.55
661.460205078,4687.3
661.734863281,4661.025
662.009521484,4653.375
662.284179688,4634.1
662.558776855,4668.125
662.833435059,4671.5
663.108032227,4701.775
663.382568359,4661.275
663.657043457,4704.875
663.93157959,4684.125
664.206054688,4666.35
664.48046875,4691.8
664.755004883,4713.6
665.02935791,4705.125
665.303710938,4717.85
665.578125,4725.25
665.852416992,4724.75
666.126708984,4728.175
666.401062012,4704.7
666.675292969,4744.025
666.949462891,4746.175
667.223754883,4726.125
667.497924805,4744.95
667.772094727,4746.475
668.046264648,4722.825
668.3203125,4750.6
668.594421387,4757.95
668.868469238,4760.275
669.14251709,4777.725
669.416503906,4762.15
669.690551758,4773.675
669.964477539,4779.1
670.23840332,4751.475
670.512329102,4771.125
670.786254883,4739.875
671.060058594,4783.225
671.333984375,4779.4
671.607788086,4789.55
671.881530762,4766.475
672.155334473,4787.425
672.429077148,4805.0
672.702758789,4813.325
672.97644043,4777.35
673.25012207,4787.325
673.523742676,4763.725
673.797302246,4765.2
674.070922852,4819.5
674.344482422,4801.3
674.618041992,4800.625
674.891601562,4793.7
675.165100098,4815.925
675.438476562,4794.35
675.711975098,4803.95
675.985412598,4779.075
676.258789062,4767.775
676.532165527,4792.9
676.805480957,4792.875
677.078796387,4777.15
677.352111816,4808.075
677.625366211,4805.575
677.898620605,4801.1
678.171875,4828.625
678.445007324,4786.9
678.718200684,4834.8
678.991394043,4822.225
679.264404297,4800.225
679.537536621,4833.65
679.81060791,4823.05
680.083679199,4825.475
680.356689453,4810.525
680.629699707,4810.925
680.902648926,4808.05
681.175598145,4851.675
681.448547363,4882.125
681.721435547,4835.65
681.99420166,4817.45
682.267150879,4811.525
682.539916992,4848.25
682.812744141,4851.55
683.085510254,4830.575
683.358215332,4825.175
683.63092041,4834.35
683.903625488,4813.5
684.176330566,4818.6
684.448913574,4804.375
684.721557617,4793.05
684.99420166,4850.7
685.266662598,4824.625
685.539245605,4824.55
685.811767578,4844.625
686.084289551,4852.85
686.356689453,4880.125
686.629150391,4868.825
686.901550293,4870.775
687.17401123,4872.4
687.446350098,4884.8
687.718688965,4897.05
687.990966797,4946.825
688.263305664,4938.85
688.535522461,4917.0
688.807739258,4934.1
689.079956055,4917.15
689.352172852,4942.325
689.624328613,4938.45
689.896484375,4950.125
690.168518066,4959.825
690.440612793,4975.175
690.71270752,4988.05
690.984741211,4967.7
691.256713867,4975.1
691.528747559,4981.45
691.800720215,4975.375
692.072631836,5000.625
692.344543457,5034.875
692.616394043,5012.85
692.888244629,5017.175
693.160095215,5040.975
693.431945801,5067.325
693.703674316,5036.125
693.975463867,5024.325
694.247131348,5052.5
694.518859863,5028.35
694.790588379,5066.725
695.062255859,5072.2
695.33380127,5064.625
695.60546875,5053.05
695.87701416,5053.125
696.148498535,5081.4
696.42010498,5121.475
696.691589355,5103.125
696.96307373,5119.425
697.234558105,5145.925
697.50592041,5137.9
697.777282715,5153.475
698.048706055,5151.975
698.320068359,5160.875
698.591308594,5118.425
698.862670898,5139.4
699.133972168,5167.75
699.405151367,5156.725
699.676391602,5181.8
699.947570801,5159.45
700.21875,5184.825
700.489868164,5194.275
700.761047363,5198.65
701.032104492,5218.5
701.303100586,5184.725
701.57421875,5220.875
701.845214844,5218.225
702.116149902,5238.675
702.387207031,5233.775
702.65814209,5251.45
702.928955078,5268.125
703.199951172,5242.35
703.47076416,5249.075
703.741577148,5254.25
704.012451172,5261.6
704.28314209,5269.025
704.553955078,5246.2
704.824707031,5305.725
705.095397949,5265.825
705.366027832,5290.6
705.63671875,5305.9
705.907348633,5291.35
706.17791748,5293.75
706.448486328,5336.325
706.719055176,5355.55
706.989562988,5353.725
707.260131836,5361.25
707.530517578,5364.525
707.800964355,5362.975
708.071411133,5351.5
708.341796875,5354.4
708.612182617,5357.725
708.882446289,5344.5
709.152893066,5343.975
709.423156738,5383.525
709.693359375,5353.425
709.963623047,5372.15
710.233825684,5394.9
710.503967285,5362.1
710.774169922,5363.375
711.044311523,5365.25
711.31439209,5375.35
711.584533691,5396.275
711.854553223,5395.175
712.124572754,5396.7
712.39465332,5376.125
712.664611816,5392.05
712.934509277,5456.725
713.204467773,5434.375
713.474365234,5449.775
713.74420166,5434.6
714.014099121,5449.85
714.283874512,5441.225
714.553710938,5471.6
714.823486328,5479.4
715.093200684,5441.925
715.362915039,5480.55
715.632629395,5437.275
715.902282715,5448.675
716.171875,5432.675
716.441589355,5437.975
716.711181641,5436.825
716.980712891,5470.7
717.250244141,5462.05
717.519775391,5481.4
717.78918457,5487.725
718.058654785,5508.5
718.328125,5538.8
718.597473145,5486.825
718.866882324,5473.675
719.136230469,5516.7
719.405578613,5524.425
719.674865723,5551.625
719.944152832,5523.225
720.213439941,5501.1
720.48260498,5538.35
720.75177002,5561.15
721.020996094,5542.25
721.290100098,5553.7
721.559204102,5545.775
721.828308105,5544.05
722.097351074,5537.375
722.366455078,5538.45
722.635437012,5557.3
722.904418945,5509.175
723.173400879,5563.775
723.442321777,5586.025
723.711181641,5567.725
723.980102539,5577.65
724.248962402,5578.85
724.51776123,5586.45
724.786560059,5605.125
725.055358887,5573.3
725.324035645,5576.3
725.592834473,5582.85
725.86151123,5588.125
726.130187988,5592.775
726.398803711,5583.025
726.667419434,5592.275
726.935974121,5597.35
727.204528809,5560.25
727.473083496,5588.425
727.741638184,5553.65
728.010070801,5551.225
728.278564453,5552.975
728.546936035,5560.15
728.815368652,5503.1
729.08380127,5478.375
729.352111816,5456.525
729.620361328,5393.55
729.88873291,5451.775
730.156982422,5474.675
730.425231934,5492.975
730.693481445,5488.975
730.961669922,5543.05
731.229797363,5551.95
731.49798584,5579.325
731.766113281,5632.775
732.034118652,5685.625
732.302246094,5699.975
732.570251465,5733.65
732.838256836,5768.975
733.106262207,5794.075
733.374145508,5834.05
733.642089844,5879.3
733.909973145,5903.325
734.177856445,5957.6
734.445678711,6007.8
734.713562012,6098.975
734.981323242,6078.4
735.249084473,6141.075
735.516845703,6241.3
735.784545898,6261.65
736.052185059,6312.3
736.319885254,6351.075
736.587524414,6395.1
736.855102539,6417.625
737.122619629,6526.475
737.390197754,6565.5
737.657714844,6639.525
737.925170898,6673.375
738.192749023,6748.4
738.460144043,6791.825
738.727539062,6842.6
738.994995117,6887.6
739.262329102,6975.45
739.529663086,7044.625
739.79699707,7070.65
740.06427002,7120.85
740.331481934,7185.15
740.598754883,7220.5
740.865905762,7241.15
741.133056641,7332.475
741.40032959,7337.825
741.667358398,7428.7
741.934448242,7417.525
742.201599121,7475.075
742.468566895,7562.9
742.735534668,7613.925
743.002563477,7596.15
743.26953125,7619.8
743.536437988,7640.3
743.803405762,7714.65
744.0703125,7703.35
744.337097168,7787.35
744.604003906,7741.175
744.870727539,7794.0
745.137512207,7836.875
745.40423584,7869.675
745.670959473,7838.95
745.93762207,7877.1
746.204284668,7883.175
746.470947266,7914.65
746.737548828,7923.15
747.004089355,7929.225
747.270751953,7964.025
747.53717041,7990.95
747.803710938,7932.75
748.070251465,7917.45
748.336608887,7953.05
748.603027344,7935.3
748.869445801,7945.375
749.135803223,7966.35
749.402099609,7967.575
749.668457031,7969.35
749.934753418,7963.55
750.20098877,7928.55
750.467224121,7974.775
750.733459473,7959.8
750.999572754,7943.825
751.26574707,7872.95
751.531860352,7940.3
751.797912598,7894.225
752.064025879,7887.9
752.330078125,7867.55
752.596069336,7889.25
752.862060547,7850.75
753.127990723,7849.825
753.393920898,7858.65
753.659912109,7836.225
753.925720215,7871.375
754.19152832,7854.75
754.457397461,7822.35
754.723144531,7810.975
754.988952637,7772.8
755.254699707,7802.975
755.520385742,7834.025
755.786071777,7807.55
756.051696777,7811.875
756.317382812,7761.425
756.582946777,7761.05
756.848510742,7795.025
757.114074707,7761.825
757.379577637,7738.2
757.645080566,7790.8
757.910583496,7765.35
758.175964355,7679.1
758.441345215,7707.225
758.706848145,7609.05
758.972106934,7651.875
759.237426758,7659.7
759.502807617,7691.675
759.768005371,7677.05
760.03326416,7637.2
760.298522949,7605.825
760.563659668,7614.55
760.828857422,7607.65
761.093994141,7618.975
761.359130859,7586.3
761.624206543,7607.3
761.889282227,7567.0
762.15423584,7561.6
762.419250488,7547.65
762.684265137,7514.9
762.949157715,7511.25
763.214050293,7497.85
763.479003906,7503.175
763.743835449,7501.075
764.008666992,7487.65
764.2734375,7487.675
764.538208008,7541.05
764.802978516,7538.025
765.067687988,7516.675
765.332397461,7530.425
765.597045898,7512.675
765.861694336,7482.1
766.126342773,7464.95
766.390930176,7451.0
766.655395508,7448.6
766.920043945,7397.3
767.184509277,7394.8
767.448974609,7404.1
767.713439941,7402.025
767.977783203,7384.05
768.2421875,7423.9
768.506591797,7365.55
768.770874023,7464.85
769.03515625,7428.4
769.299499512,7425.175
769.563720703,7420.375
769.827941895,7373.9
770.092163086,7407.55
770.356323242,7363.725
770.620483398,7402.075
770.88458252,7416.05
771.148681641,7406.375
771.412719727,7397.9
771.676757812,7447.825
771.940734863,7396.775
772.204711914,7361.775
772.468688965,7372.95
772.73260498,7358.75
772.996459961,7383.0
773.260314941,6576.1
773.524169922,872.175
773.787963867,144.4
774.051696777,124.35
774.315551758,123.125
774.579223633,125.0
774.842895508,121.65
775.106567383,125.775
775.370239258,117.675
775.633789062,123.0
775.897399902,126.675
776.160949707,120.05
776.424499512,121.225
776.687988281,126.65
776.951477051,126.9
777.214904785,119.575
777.47833252,124.975
