191.299911499,100.975
191.603515625,102.35
191.907119751,98.025
192.210693359,105.0
192.514251709,97.125
192.817810059,104.275
193.121368408,102.95
193.42489624,106.8
193.728408813,96.425
194.031936646,99.25
194.33543396,94.125
194.638916016,112.475
194.94241333,101.425
195.245880127,98.175
195.549331665,98.3
195.852767944,101.425
196.156204224,197.85
196.459625244,192.45
196.763015747,191.75
197.066436768,197.225
197.369812012,192.15
197.673187256,192.475
197.9765625,187.75
198.279922485,193.8
198.583251953,185.75
198.886581421,190.775
199.18989563,197.975
199.493209839,190.7
199.79649353,184.0
200.09979248,197.775
200.403076172,192.05
200.706314087,192.05
201.009567261,189.825
201.312820435,192.2
201.616027832,180.725
201.919235229,183.95
202.222457886,186.225
202.525634766,190.85
202.828826904,181.675
203.132003784,182.3
203.435150146,184.625
203.738296509,179.325
204.041412354,179.0
204.344558716,186.875
204.647659302,188.875
204.950759888,186.5
205.253845215,186.775
205.556930542,184.025
205.859985352,184.475
206.163024902,183.75
206.466079712,184.475
206.769104004,197.55
207.072113037,185.25
207.375137329,184.5
207.678131104,187.75
207.981109619,191.85
208.284088135,182.925
208.587036133,192.125
208.889984131,191.025
209.19291687,194.775
209.495849609,193.575
209.798751831,193.325
210.101654053,192.625
210.404556274,192.0
210.707427979,192.35
211.010269165,202.2
211.31312561,198.6
211.615982056,196.7
211.918807983,194.55
212.221618652,193.3
212.524429321,192.175
212.827224731,201.425
213.130004883,200.35
213.432769775,200.025
213.735534668,201.6
214.038269043,205.975
214.341003418,199.65
214.643737793,207.45
214.946456909,210.875
215.249145508,206.425
215.551834106,212.775
215.854507446,213.7
216.157165527,208.5
216.45980835,213.2
216.762451172,215.35
217.065078735,218.225
217.36769104,215.025
217.670303345,222.675
217.972885132,225.55
218.275466919,223.0
218.578048706,216.7
218.880599976,231.3
219.183120728,230.825
219.485656738,230.925
219.788192749,242.8
220.090682983,255.35
220.393188477,273.775
220.695663452,303.925
220.998138428,324.975
221.300582886,370.45
221.603042603,405.35
221.905487061,459.975
222.207901001,524.975
222.510299683,593.575
222.812728882,682.575
223.115097046,774.425
223.41746521,859.0
223.719848633,970.075
224.022171021,1066.625
224.324508667,1178.325
224.626846313,1307.375
224.929168701,1421.425
225.231460571,1546.325
225.533737183,1667.7
225.836013794,1791.675
226.138290405,1915.975
226.440536499,2014.5
226.742767334,2108.675
227.044998169,2226.7
227.347213745,2336.025
227.649429321,2440.475
227.951629639,2515.175
228.253799438,2578.575
228.555953979,2640.15
228.858123779,2727.675
229.160263062,2773.075
229.462371826,2818.0
229.764511108,2882.1
230.066619873,2905.975
230.36869812,2949.6
230.670776367,2982.2
230.972854614,3045.425
231.274902344,3070.45
231.576950073,3133.4
231.878967285,3154.5
232.180999756,3212.075
232.48298645,3254.4
232.784988403,3307.65
233.086975098,3322.35
233.388946533,3336.6
233.69090271,3387.525
233.992858887,3448.275
234.294769287,3424.3
234.596694946,3483.775
234.898605347,3515.85
235.200500488,3496.925
235.502380371,3517.15
235.804244995,3502.55
236.106109619,3497.25
236.407958984,3486.125
236.709777832,3482.7
237.011581421,3491.8
237.313400269,3470.0
237.615203857,3424.85
237.916976929,3439.0
238.21875,3409.4
238.520507812,3383.825
238.822250366,3367.275
239.12399292,3337.05
239.425704956,3301.35
239.727401733,3246.025
240.02911377,3239.15
240.330780029,3180.675
240.632446289,3149.325
240.93409729,3134.8
241.23576355,3101.3
241.537384033,3055.375
241.839004517,3026.225
242.140594482,2993.625
242.442199707,2979.55
242.743774414,2949.825
243.045333862,2902.875
243.346923828,2869.55
243.648452759,2829.65
243.949966431,2794.075
244.251495361,2776.25
244.552993774,2733.1
244.854492188,2689.5
245.155975342,2638.975
245.457443237,2595.925
245.758880615,2568.1
246.060333252,2514.375
246.36177063,2470.75
246.66317749,2435.85
246.964569092,2387.525
247.265945435,2347.85
247.567337036,2300.5
247.86869812,2278.275
248.170059204,2250.35
248.471389771,2208.275
248.772705078,2187.775
249.074035645,2173.475
249.375335693,2145.7
249.676620483,2115.95
249.977890015,2110.95
250.279159546,2096.225
250.58039856,2095.1
250.881637573,2072.75
251.182876587,2050.15
251.484069824,2059.475
251.785263062,2046.025
252.086456299,2053.225
252.387619019,2034.6
252.688781738,2016.65
252.989929199,2023.225
253.291061401,2023.25
253.592178345,2034.9
253.893280029,2009.0
254.194366455,2024.6
254.49546814,2001.85
254.796524048,2000.05
255.097579956,1994.075
255.398620605,1989.45
255.699645996,1996.075
256.000640869,1968.475
256.30166626,1985.475
256.602661133,1978.425
256.903656006,1965.075
257.204589844,1977.05
257.505523682,1953.9
257.80645752,1955.375
258.107391357,1966.825
258.408294678,1942.875
258.709228516,1933.525
259.010070801,1935.725
259.310943604,1947.375
259.611846924,1925.45
259.912658691,1928.3
260.213500977,1921.4
260.514343262,1935.425
260.815124512,1911.75
261.115936279,1939.9
261.416717529,1940.35
261.717468262,1957.575
262.018218994,1962.65
262.318969727,1973.775
262.619689941,2021.05
262.920410156,2050.225
263.221130371,2083.65
263.521789551,2115.85
263.822479248,2174.025
264.123138428,2230.275
264.42376709,2256.95
264.72442627,2309.475
265.025054932,2337.325
265.325622559,2394.9
265.626251221,2414.8
265.926818848,2465.0
266.227386475,2481.975
266.527954102,2519.425
266.828460693,2577.075
267.12902832,2587.575
267.429534912,2608.55
267.730010986,2643.1
268.030517578,2706.075
268.330993652,2733.175
268.631439209,2764.35
268.931915283,2808.975
269.232299805,2847.125
269.532745361,2920.275
269.8331604,2935.775
270.133544922,2975.15
270.433929443,3045.15
270.734313965,3091.325
271.034637451,3163.55
271.334991455,3218.95
271.635314941,3301.55
271.935638428,3375.25
272.235931396,3477.025
272.536254883,3553.125
272.836486816,3659.925
273.136749268,3766.425
273.437011719,3902.275
273.737213135,4039.55
274.037445068,4156.725
274.337677002,4283.025
274.6378479,4439.5
274.938049316,4611.275
275.238220215,4762.8
275.538360596,4931.95
275.838500977,5050.9
276.138641357,5232.425
276.438751221,5359.45
276.738830566,5484.775
277.03894043,5637.825
277.338989258,5811.6
277.639038086,5975.15
277.939056396,6081.1
278.239105225,6223.875
278.539093018,6378.25
278.839141846,6499.075
279.139129639,6623.675
279.439086914,6766.825
279.739044189,6886.25
280.039001465,7036.8
280.338928223,7149.025
280.63885498,7244.3
280.938781738,7389.75
281.238647461,7462.15
281.538513184,7545.05
281.838409424,7645.925
282.138244629,7738.0
282.438079834,7837.475
282.737945557,7933.375
283.037719727,7985.25
283.337524414,8081.825
283.637298584,8148.95
283.937072754,8202.0
284.236816406,8242.675
284.536560059,8294.025
284.836303711,8357.925
285.136016846,8464.85
285.43572998,8473.125
285.735412598,8522.0
286.035064697,8558.325
286.334747314,8645.925
286.634368896,8668.525
286.933990479,8632.7
287.233642578,8598.6
287.533203125,8638.9
287.832824707,8601.225
288.132385254,8522.3
288.431945801,8410.375
288.731506348,8296.2
289.031036377,8146.575
289.330566406,8011.15
289.630065918,8015.9
289.92956543,8025.3
290.229034424,8125.325
290.528503418,8322.0
290.827941895,8530.2
291.127380371,8705.075
291.42678833,8823.725
291.726226807,9021.075
292.025604248,9051.95
292.324981689,9115.975
292.624359131,9142.475
292.923736572,9166.35
293.223052979,9195.625
293.522369385,9176.475
293.821685791,9122.025
294.12097168,9129.275
294.420257568,9096.225
294.719543457,9064.3
295.018768311,9052.675
295.318023682,8988.575
295.617248535,8935.075
295.916442871,8880.975
296.215667725,8831.75
296.514862061,8667.925
296.813995361,8431.225
297.11315918,8191.1
297.412322998,8019.95
297.711425781,8033.65
298.010559082,8203.975
298.309631348,8435.575
298.608734131,8674.625
298.907806396,8886.9
299.206848145,9073.95
299.505889893,9140.75
299.804901123,9247.4
300.103912354,9347.05
300.402954102,9415.225
300.701904297,9508.9
301.00088501,9548.5
301.299835205,9648.625
301.5987854,9686.95
301.897735596,9801.95
302.196624756,9822.975
302.495513916,9930.3
302.794403076,9977.275
303.093292236,10027.05
303.392120361,10119.95
303.690979004,10184.6
303.989837646,10230.175
304.288604736,10282.375
304.587402344,10276.175
304.886199951,10345.725
305.184967041,10402.575
305.483734131,10425.025
305.782501221,10479.475
306.081176758,10482.675
306.37991333,10540.85
306.678619385,10534.9
306.977294922,10542.525
307.275970459,10574.25
307.574645996,10603.25
307.873260498,10530.55
308.171875,10581.55
308.470489502,10584.0
308.769104004,10471.5
309.067687988,10467.65
309.366241455,10504.925
309.664794922,10432.825
309.963348389,10445.7
310.261871338,10441.975
310.560394287,10455.325
310.858856201,10463.925
311.157348633,10494.675
311.455810547,10534.5
311.754272461,10560.6
312.052703857,10621.15
312.351135254,10635.4
312.649536133,10638.65
312.947937012,10638.475
313.246307373,10662.575
313.544647217,10672.8
313.843017578,10567.9
314.141387939,10545.9
314.439697266,10616.475
314.738006592,10512.0
315.036315918,10431.0
315.334564209,10308.0
315.6328125,10261.35
315.931091309,10189.025
316.229309082,10063.875
316.527526855,9883.3
316.825744629,9868.0
317.123901367,9743.9
317.422088623,9694.175
317.720245361,9680.9
318.0184021,9687.975
318.316497803,9750.325
318.614654541,9777.575
318.912750244,9889.75
319.21081543,9869.15
319.50894165,9905.475
319.806945801,9888.525
320.104980469,9902.6
320.403045654,9903.975
320.701049805,9867.175
320.999023438,9839.275
321.297027588,9794.05
321.595001221,9752.75
321.892913818,9707.575
322.190887451,9637.0
322.488830566,9576.975
322.786712646,9527.225
323.084625244,9419.2
323.382507324,9413.225
323.680358887,9283.975
323.978210449,9230.875
324.276062012,9144.6
324.573852539,9112.675
324.871643066,9049.35
325.169464111,8945.075
325.467224121,8873.175
325.764984131,8793.525
326.062744141,8705.65
326.360473633,8626.525
326.658203125,8561.25
326.955871582,8457.65
327.253570557,8410.05
327.551239014,8334.425
327.848907471,8265.475
328.146514893,8167.075
328.444152832,8102.9
328.741790771,8023.3
329.039367676,7994.075
329.336914062,7882.55
329.634521484,7826.9
329.932067871,7755.85
330.229553223,7674.8
330.527160645,7597.875
330.824615479,7548.775
331.12210083,7474.85
331.419586182,7321.325
331.717041016,7267.425
332.014465332,7186.3
332.311920166,7146.225
332.609313965,7076.675
332.906707764,7060.7
333.204101562,7048.275
333.501495361,7025.1
333.798828125,7084.925
334.096160889,7140.675
334.39352417,7193.275
334.690795898,7276.475
334.988098145,7349.625
335.285400391,7387.175
335.582641602,7372.3
335.879882812,7441.6
336.177124023,7442.15
336.474334717,7530.075
336.77154541,7511.25
337.068725586,7548.425
337.365905762,7548.575
337.66305542,7559.55
337.960205078,7591.45
338.257324219,7613.15
338.554443359,7604.0
338.8515625,7620.9
339.148590088,7632.6
339.445648193,7627.85
339.742736816,7585.65
340.039764404,7603.025
340.336761475,7527.175
340.63381958,7475.9
340.930755615,7427.075
341.227722168,7333.8
341.524688721,7255.65
341.821624756,7215.25
342.118560791,7234.075
342.415496826,7299.025
342.712402344,7460.325
343.009246826,7624.875
343.306121826,7768.55
343.602966309,7823.075
343.899810791,7910.0
344.196624756,8015.0
344.493438721,8025.475
344.79019165,8102.575
345.086975098,8153.75
345.383758545,8224.0
345.680480957,8152.65
345.977203369,8196.35
346.273956299,8252.6
346.570617676,8236.075
346.86730957,8236.525
347.163970947,8197.5
347.460601807,8272.8
347.757232666,8267.325
348.053894043,8237.2
348.350463867,8137.425
348.647064209,8146.825
348.943634033,8125.825
349.24017334,8153.175
349.536712646,8070.45
349.833251953,8089.975
350.129760742,8031.65
350.426208496,8028.575
350.722747803,7966.35
351.019195557,7978.65
351.315612793,7924.675
351.612060547,7873.8
351.908508301,7804.625
352.204864502,7738.675
352.501281738,7699.55
352.797637939,7600.55
353.093963623,7488.525
353.390319824,7449.975
353.686645508,7343.4
353.982940674,7230.825
354.27923584,7193.65
354.575531006,7124.85
354.871765137,7110.725
355.167999268,7064.9
355.464233398,7085.225
355.760437012,7110.3
356.056640625,7061.175
356.352813721,7069.65
356.648956299,7060.525
356.945129395,7090.375
357.241271973,7063.325
357.537384033,7101.5
357.833496094,7015.05
358.129577637,6979.9
358.425628662,6967.025
358.721679688,6900.5
359.017730713,6915.2
359.313720703,6837.425
359.609710693,6784.9
359.905761719,6728.275
360.201721191,6674.35
360.497650146,6613.0
360.793609619,6564.825
361.089538574,6455.5
361.385437012,6358.3
361.681365967,6333.95
361.977233887,6277.325
362.273071289,6189.375
362.568908691,6057.725
362.864746094,5920.625
363.160552979,5766.475
363.456359863,5573.8
363.752166748,5402.875
364.047912598,5300.275
364.343658447,5252.125
364.639434814,5303.775
364.935119629,5326.975
365.230834961,5383.5
365.526550293,5414.45
365.822174072,5425.4
366.117858887,5445.1
366.413482666,5480.625
366.709075928,5493.575
367.004730225,5388.65
367.300292969,5356.85
367.595855713,5431.3
367.891448975,5279.4
368.186981201,5145.725
368.482513428,5111.125
368.778015137,5099.125
369.073547363,5031.475
369.36895752,5043.4
369.664428711,4926.65
369.95993042,4818.925
370.255310059,4747.4
370.550720215,4693.95
370.846160889,4667.425
371.14151001,4620.25
371.436859131,4582.9
371.73223877,4561.375
372.027557373,4517.875
372.322875977,4457.725
372.618164062,4417.5
372.913482666,4371.675
373.208709717,4327.975
373.503967285,4267.2
373.799194336,4210.975
374.094421387,4207.225
374.389648438,4174.15
374.684844971,4158.275
374.979980469,4206.275
375.275146484,4218.825
375.570281982,4229.7
375.865386963,4218.275
376.160522461,4150.625
376.455596924,4167.5
376.750640869,4240.65
377.045715332,4258.3
377.340759277,4285.55
377.635772705,4344.4
377.93081665,4390.05
378.225769043,4430.6
378.520751953,4498.125
378.815734863,4440.525
379.110656738,4622.975
379.405548096,4791.7
379.700500488,4611.7
379.995391846,4371.05
380.290252686,4440.15
380.585083008,4515.65
380.879974365,4593.4
381.17477417,4465.05
381.469543457,4413.8
381.764404297,4395.725
382.059143066,4421.625
382.353912354,4502.65
382.648651123,4587.8
382.943389893,4558.4
383.238067627,4374.625
383.532775879,4382.575
383.827484131,4332.45
384.12210083,4308.35
384.416778564,4253.7
384.711425781,4144.2
385.006011963,4172.925
385.300628662,4159.325
385.595184326,4224.325
385.88973999,4321.625
386.184295654,4427.525
386.478820801,4493.175
386.77331543,4592.35
387.067840576,4695.3
387.362335205,4800.05
387.656768799,4848.2
387.951202393,4876.65
388.245635986,4952.925
388.540039062,5049.725
388.834472656,5076.9
389.128875732,4984.425
389.423187256,4748.825
389.717559814,4693.375
390.011871338,4805.175
390.306182861,4830.95
390.600463867,4846.925
390.894775391,4918.225
391.189025879,4932.05
391.48324585,4937.325
391.777526855,4967.825
392.071685791,5204.025
392.365875244,5276.7
392.660064697,5339.6
392.95425415,5670.6
393.248382568,5658.525
393.542510986,5179.375
393.836608887,5008.725
394.130706787,5031.8
394.424804688,4935.55
394.71887207,5050.425
395.012878418,5042.175
395.306915283,4928.15
395.600921631,4883.2
395.894927979,4840.2
396.188903809,4880.775
396.482879639,4908.3
396.776794434,5119.625
397.070739746,5056.15
397.364654541,5095.65
397.658538818,5487.05
397.952423096,5487.2
398.246307373,5456.25
398.540100098,5997.675
398.833953857,5867.275
399.127746582,5372.275
399.421508789,5399.575
399.715301514,5318.025
400.009063721,5251.275
400.30279541,5098.925
400.596496582,5008.925
400.890258789,5180.825
401.183929443,5252.55
401.47756958,5159.625
401.771240234,4923.35
402.064880371,4934.675
402.35848999,4975.025
402.652130127,4897.175
402.945678711,4973.45
403.239257812,4903.325
403.532775879,4833.925
403.82635498,4900.75
404.119842529,4825.875
404.413360596,4805.4
404.706848145,4868.95
405.000274658,4802.425
405.293762207,4872.675
405.587188721,4939.675
405.880584717,4775.75
406.17401123,4585.45
406.467407227,4385.2
406.760742188,4395.45
407.054107666,4444.0
407.347442627,4386.4
407.640716553,4372.375
407.934051514,4421.0
408.227325439,4485.625
408.520568848,4713.275
408.813842773,4797.8
409.107086182,4592.975
409.400238037,4551.225
409.693450928,4491.4
409.986633301,4611.95
410.279754639,4513.05
410.572875977,4224.0
410.86605835,4177.625
411.159118652,4177.25
411.452209473,4186.7
411.745330811,4058.375
412.038360596,3977.375
412.331390381,4013.675
412.624420166,4072.025
412.917388916,3962.825
413.210388184,3787.95
413.503387451,3770.2
413.796295166,3655.4
414.089233398,3464.775
414.382141113,3390.05
414.675048828,3394.825
414.967926025,3414.85
415.260803223,3372.75
415.55368042,3402.1
415.846466064,3370.85
416.139282227,3453.2
416.432098389,3580.125
416.724853516,3573.325
417.017608643,3511.1
417.31036377,3535.075
417.603088379,3669.0
417.895782471,3636.55
418.188476562,3604.05
418.481140137,3661.475
418.773803711,3742.625
419.066436768,3721.3
419.359039307,3783.5
419.651641846,3809.975
419.944244385,3798.975
420.236816406,3772.725
420.529327393,3975.425
420.821899414,4073.3
421.114379883,3979.225
421.406860352,4272.225
421.699371338,4517.1
421.991821289,4469.725
422.284240723,4261.5
422.576721191,4106.85
422.869110107,3979.025
423.161468506,3932.525
423.453857422,3977.15
423.74621582,3849.95
424.038543701,3699.175
424.330871582,3684.4
424.623168945,3611.425
424.915435791,3761.975
425.207702637,3719.825
425.499969482,3649.8
425.792205811,3598.725
426.084411621,3341.15
426.376617432,3433.975
426.668762207,3502.475
426.9609375,3391.5
427.253082275,3505.425
427.545196533,3952.35
427.837310791,3654.85
428.129425049,3353.0
428.421447754,3576.9
428.713531494,3587.675
429.005554199,3566.25
429.297576904,3608.7
429.589599609,4046.625
429.881561279,4378.6
430.173522949,4167.275
430.465484619,4108.95
430.757415771,4171.05
431.049316406,3948.425
431.341186523,3706.65
431.633117676,3607.775
431.924957275,3265.525
432.21673584,3151.0
432.508636475,3320.025
432.800415039,3339.275
433.092163086,3220.85
433.383972168,3204.1
433.675689697,3958.35
433.967437744,4502.875
434.259155273,3477.5
434.550872803,3142.925
434.842498779,3199.25
435.134185791,3339.575
435.425842285,3380.65
435.717437744,3267.5
436.009063721,3060.45
436.30065918,3231.95
436.592224121,3599.975
436.883758545,3388.075
437.175323486,3110.45
437.466827393,3070.15
437.758331299,3110.05
438.049804688,3117.175
438.341247559,3181.5
438.63269043,3267.95
438.924163818,3254.35
439.215515137,3216.05
439.50692749,3109.8
439.798309326,3110.725
440.089660645,3142.725
440.380981445,3036.475
440.672332764,3025.6
440.963623047,3321.475
441.254882812,3806.025
441.546173096,4034.375
441.837402344,3743.125
442.128631592,3545.1
442.41986084,3513.975
442.711029053,3375.55
443.002197266,3463.675
443.293365479,3666.525
443.584503174,3803.8
443.875610352,3782.425
444.166717529,3480.325
444.457794189,3550.625
444.748840332,3534.85
445.039916992,3471.2
445.330932617,3601.475
445.621948242,3415.0
445.912963867,3213.2
446.203918457,3464.925
446.494812012,3700.825
446.785827637,3480.925
447.076721191,3288.825
447.367584229,3267.65
447.658447266,3249.45
447.949371338,3304.025
448.24017334,3151.75
448.530975342,3075.775
448.821838379,3275.1
449.112579346,3357.225
449.40335083,3271.725
449.694152832,3311.6
449.984863281,3327.7
450.27557373,3254.2
450.56628418,3311.0
450.856933594,3324.775
451.147583008,3155.925
451.438262939,3043.075
451.728881836,3272.3
452.019470215,3374.95
452.310089111,3146.1
452.600646973,3182.35
452.891174316,3245.725
453.181732178,3038.725
453.472229004,2910.95
453.762695312,3030.375
454.053222656,3065.625
454.343658447,2911.85
454.634063721,2847.45
454.924530029,3027.175
455.214935303,3198.925
455.505279541,3266.175
455.795715332,3116.5
456.086029053,2908.3
456.376312256,2873.075
456.666687012,2928.425
456.956939697,3023.25
457.247192383,3047.725
457.537445068,3122.075
457.827728271,3311.875
458.117919922,3227.775
458.408081055,3163.225
458.698303223,3355.225
458.988433838,3286.05
459.278564453,3078.175
459.568725586,3403.725
459.858825684,3520.75
460.148864746,3170.7
460.438995361,3137.25
460.729034424,3204.9
461.019042969,3215.125
461.309082031,3417.6
461.599060059,3297.325
461.889007568,2798.025
462.179016113,2597.575
462.468933105,2859.275
462.75881958,2967.7
463.048736572,2696.525
463.338592529,2985.7
463.628448486,3400.6
463.918365479,3054.55
464.2081604,3238.325
464.497924805,3206.85
464.787780762,3347.15
465.077514648,3675.45
465.367218018,3267.075
465.657012939,3487.95
465.946685791,3949.0
466.236358643,3508.6
466.526092529,2905.575
466.815734863,2907.875
467.105316162,2826.3
467.394927979,2857.025
467.684570312,2710.8
467.974121094,2811.775
468.263671875,2936.65
468.553222656,2702.225
468.842773438,2575.1
469.132232666,2450.525
469.42175293,2485.05
469.711212158,2443.625
470.000640869,2312.55
470.290100098,2384.875
470.579498291,2434.575
470.868835449,2421.25
471.158294678,2379.9
471.447601318,2365.625
471.736907959,2437.825
472.026275635,2521.2
472.315551758,2494.8
472.604797363,2474.375
472.894104004,2629.875
473.183319092,2765.325
473.47253418,2750.7
473.761779785,2735.1
474.05090332,2660.275
474.340087891,2599.125
474.629241943,2533.075
474.918365479,2713.525
475.207427979,3032.925
475.496551514,3051.625
475.785614014,2772.325
476.074645996,2541.075
476.363708496,2638.125
476.652679443,2796.025
476.941650391,2590.65
477.230682373,2444.75
477.519622803,2437.225
477.808502197,2609.0
478.097412109,2903.075
478.386352539,2846.9
478.675201416,2552.675
478.964050293,2436.45
479.25289917,2637.075
479.541717529,2720.575
479.830474854,2534.375
480.11932373,2941.225
480.408050537,3129.9
480.696777344,2694.625
480.985534668,2553.025
481.274200439,2662.9
481.562866211,2933.85
481.851593018,2964.35
482.140197754,2901.1
482.428833008,2716.35
482.717468262,2486.95
483.006011963,2533.05
483.294586182,2669.725
483.5831604,2714.625
483.871673584,2544.2
484.16015625,2703.45
484.448699951,2987.825
484.7371521,3042.175
485.02557373,3039.325
485.314025879,2740.375
485.602416992,4223.725
485.890777588,14925.25
486.179199219,13418.925
486.467559814,3619.5
486.755859375,2625.075
487.044219971,3070.4
487.332519531,3277.15
487.620758057,2819.6
487.908966064,2525.475
488.197265625,2284.225
488.485473633,2184.05
488.773651123,2315.7
489.061859131,2298.3
489.350006104,2247.1
489.638122559,2186.125
489.926300049,2215.825
490.214355469,2148.55
490.502441406,2096.875
490.790527344,2032.9
491.078552246,2245.575
491.366546631,2251.275
491.654602051,1983.05
491.942565918,2064.65
492.230499268,2112.325
492.518493652,2077.2
492.806396484,2125.275
493.094268799,2014.225
493.382202148,2051.125
493.670074463,2197.0
493.957885742,2022.825
494.245727539,2021.375
494.533508301,2212.175
494.821289062,2087.5
495.109100342,1910.175
495.396850586,1862.375
495.684539795,1811.95
495.972290039,2054.975
496.25994873,2447.775
496.547607422,2464.2
496.835296631,2240.9
497.122894287,1867.625
497.410522461,1789.575
497.6980896,1788.6
497.985687256,1750.9
498.273223877,1863.975
498.560760498,1952.5
498.848266602,1984.2
499.135772705,1955.175
499.423217773,1997.35
499.710693359,2131.075
499.998138428,2061.675
500.285522461,1865.9
500.572937012,1755.7
500.860290527,1838.575
501.147644043,1952.675
501.434997559,2219.65
501.722290039,2074.5
502.00958252,1792.9
502.296875,2102.0
502.584106445,2095.4
502.871337891,1870.2
503.158599854,1963.925
503.445770264,2070.75
503.732910156,2041.975
504.020141602,1823.25
504.307220459,1785.675
504.594329834,1837.9
504.881469727,1762.45
505.168518066,1841.3
505.455535889,1930.2
505.742614746,1790.65
506.029632568,1706.175
506.316589355,1927.9
506.603637695,2035.4
506.890563965,1807.275
507.177459717,1606.4
507.464385986,1516.675
507.751312256,1782.35
508.038146973,1870.925
508.325012207,1713.725
508.611877441,1774.95
508.898681641,1784.55
509.185424805,1604.35
509.472259521,1558.975
509.759002686,1655.2
510.045715332,1690.125
510.332458496,1628.625
510.619140625,1697.225
510.905761719,1621.775
511.192504883,1597.3
511.479095459,1639.175
511.765686035,1591.85
512.052307129,1486.4
512.338928223,1433.725
512.625427246,1483.3
512.91204834,1571.05
513.198486328,1549.15
513.484985352,1497.15
513.77142334,1414.475
514.057922363,1464.525
514.344299316,1467.925
514.63079834,1422.7
514.917175293,1408.05
515.203552246,1290.075
515.489868164,1264.975
515.776245117,1420.625
516.0625,1460.4
516.348815918,1339.675
516.635070801,1401.05
516.921325684,1456.175
517.207580566,1393.25
517.493774414,1274.725
517.779968262,1280.95
518.066101074,1330.675
518.352294922,1267.85
518.638366699,1282.15
518.924499512,1371.55
519.210632324,1465.6
519.496643066,1423.975
519.782714844,1293.3
520.068786621,1274.675
520.354736328,1214.525
520.640686035,1161.825
520.926757812,1220.375
521.212646484,1315.175
521.498535156,1313.2
521.784484863,1258.475
522.0703125,1170.275
522.356262207,1200.575
522.642089844,1286.8
522.927856445,1287.475
523.213684082,1265.325
523.499511719,1257.725
523.78527832,1315.925
524.070983887,1378.375
524.356750488,1338.525
524.64239502,1298.475
524.928039551,1292.65
525.213806152,1316.475
525.499389648,1298.05
525.784973145,1320.525
526.070617676,1379.5
526.356140137,1340.675
526.641723633,1353.3
526.927307129,1422.125
527.212768555,1430.15
527.498291016,1402.4
527.783752441,1400.775
528.069213867,1380.2
528.354675293,1405.7
528.640014648,1599.575
528.925476074,1681.325
529.21081543,1589.95
529.496154785,1559.55
529.781555176,1523.575
530.066833496,1545.85
530.352050781,1576.85
530.637390137,1556.8
530.922607422,1543.6
531.207824707,1543.175
531.493041992,1533.2
531.778198242,1613.525
532.063354492,1594.075
532.348571777,1526.025
532.633666992,1544.225
532.918762207,1637.275
533.203857422,1739.175
533.488891602,1770.175
533.773925781,1705.25
534.059020996,1669.6
534.343933105,1702.55
534.628967285,1681.75
534.91394043,1687.5
535.198852539,1707.725
535.483703613,1693.35
535.768676758,1605.825
536.053527832,1620.3
536.338317871,1569.95
536.62322998,1505.15
536.90802002,1471.875
537.192810059,1500.35
537.477539062,1581.575
537.762329102,1634.35
538.047058105,1682.825
538.331726074,1722.0
538.616455078,1703.475
538.901123047,1680.1
539.18572998,1730.95
539.470397949,1733.75
539.755004883,1714.15
540.039550781,1682.325
540.32409668,1624.125
540.608703613,1671.625
540.893188477,1785.4
541.17767334,1810.65
541.462158203,1823.725
541.746643066,1755.45
542.031066895,1808.625
542.315429688,1849.275
542.59979248,1839.55
542.884216309,1821.475
543.168579102,1808.075
543.452941895,1823.9
543.737243652,1897.825
544.021484375,1943.225
544.305725098,1931.075
544.590026855,1911.125
544.874267578,1918.275
545.158447266,2018.475
545.442626953,1897.95
545.726806641,1775.975
546.010925293,1827.45
546.29510498,1862.675
546.579162598,1847.075
546.863220215,1879.475
547.147277832,1977.125
547.431335449,2070.475
547.715332031,2138.7
547.999328613,2282.55
548.283325195,2279.475
548.567260742,2100.35
548.851135254,2088.15
549.135070801,2042.7
549.419006348,1934.1
549.702819824,2030.4
549.986755371,2122.25
550.270507812,2090.35
550.554321289,2150.975
550.83807373,2148.55
551.121826172,2083.75
551.405517578,2129.25
551.689331055,2252.875
551.973022461,2540.45
552.256652832,2611.625
552.540344238,2500.225
552.823974609,2456.7
553.107543945,2443.675
553.391174316,2517.75
553.674743652,2580.5
553.958251953,2590.925
554.241821289,2598.775
554.525268555,2530.45
554.808776855,2526.75
555.092285156,2734.75
555.375671387,2850.275
555.659057617,2845.85
555.942504883,2889.45
556.225891113,2916.1
556.509216309,2857.05
556.792541504,2768.975
557.075866699,2851.4
557.359130859,2905.5
557.64239502,2896.475
557.92565918,2986.625
558.208862305,2963.95
558.49206543,2877.825
558.77532959,2912.35
559.058410645,2965.7
559.341552734,2949.3
559.624694824,3021.975
559.907775879,3093.5
560.190856934,3242.75
560.473937988,3231.075
560.756896973,3269.4
561.039978027,3328.975
561.322937012,3253.775
561.605895996,3247.725
561.88885498,3200.65
562.171813965,3214.5
562.454650879,3191.225
562.737548828,3246.9
563.020446777,3327.975
563.303283691,3349.6
563.58605957,3397.6
563.868896484,3424.65
564.151672363,3482.675
564.434387207,3518.15
564.717163086,3478.6
564.99987793,3534.875
565.282531738,3602.95
565.565185547,3507.575
565.847839355,3535.525
566.130432129,3670.75
566.413085938,3660.2
566.695678711,3654.15
566.978149414,3787.3
567.260681152,3966.525
567.543273926,4063.3
567.825744629,3955.825
568.108154297,3981.425
568.390686035,4135.725
568.673095703,4291.4
568.955505371,4328.1
569.237854004,4366.825
569.520202637,4681.825
569.802490234,4942.15
570.084838867,4938.125
570.367126465,4737.425
570.649414062,4749.75
570.93170166,5162.35
571.213928223,5281.1
571.496154785,4977.35
571.778381348,5256.625
572.06048584,5548.4
572.342590332,5017.8
572.624755859,4598.225
572.906860352,4649.275
573.188903809,5467.2
573.470947266,5744.275
573.752990723,5453.8
574.03503418,5602.575
574.317016602,6046.8
574.598937988,5775.025
574.88092041,5647.825
575.162841797,5856.625
575.444763184,5420.05
575.726623535,5129.425
576.008483887,5159.15
576.290344238,5646.95
576.572143555,5886.2
576.853881836,5964.15
577.135681152,5856.175
577.417419434,5909.375
577.699157715,6923.85
577.980895996,7161.275
578.262573242,6353.3
578.544128418,5795.7
578.825866699,5706.5
579.107421875,5374.175
579.388977051,5585.2
579.670593262,6022.55
579.952148438,5818.725
580.233642578,5957.175
580.515197754,6086.275
580.796691895,5708.175
581.078125,5914.05
581.359619141,7723.675
581.640991211,7832.475
581.922363281,6753.45
582.203796387,6829.575
582.485107422,6381.35
582.766418457,5904.875
583.047790527,5739.55
583.329040527,5598.625
583.610290527,5437.225
583.891540527,5560.9
584.172790527,5935.85
584.453918457,5966.725
584.735107422,6026.05
585.016235352,6558.375
585.297363281,6506.975
585.578552246,6280.55
585.859619141,6225.2
586.140625,5933.6
586.421630859,5792.575
586.702697754,5839.325
586.983642578,6120.5
587.264648438,6301.775
587.545654297,6214.3
587.826477051,6147.25
588.107421875,5919.5
588.388305664,5963.2
588.669189453,6082.075
588.950012207,5923.025
589.230834961,5803.825
589.511657715,5885.325
589.792358398,6018.75
590.073120117,6042.8
590.353881836,5961.375
590.63458252,5994.4
590.915283203,5952.45
591.195922852,5933.275
591.4765625,6012.05
591.757202148,6024.8
592.037780762,6024.975
592.31829834,6028.025
592.598937988,6288.075
592.879394531,6464.475
593.159912109,6366.0
593.440429688,6286.75
593.720825195,6242.775
594.001281738,6224.2
594.281677246,6134.175
594.562072754,6144.7
594.842407227,6287.225
595.122802734,6325.825
595.403137207,6301.325
595.683410645,6258.65
595.963623047,6261.725
596.243896484,6191.875
596.524169922,6180.1
596.804382324,6198.45
597.084533691,6243.35
597.364746094,6271.65
597.644836426,6295.4
597.924987793,6278.65
598.205078125,6238.55
598.485107422,6298.725
598.765197754,6421.775
599.045227051,6469.3
599.325195312,6361.275
599.605224609,6304.875
599.885192871,6349.0
600.165100098,6394.6
600.445007324,6333.375
600.724914551,6362.975
601.004760742,6388.275
601.284667969,6399.4
601.56451416,6358.625
601.844238281,6361.125
602.124084473,6341.7
602.403808594,6364.15
602.683532715,6431.5
602.963256836,6370.625
603.242919922,6432.375
603.522583008,6489.25
603.802246094,6460.95
604.081848145,6407.1
604.36138916,6387.45
604.641052246,6404.775
604.920532227,6374.975
605.200073242,6419.65
605.479614258,6454.05
605.759094238,6469.0
606.038574219,6477.9
606.317932129,6399.475
606.597412109,6409.6
606.87677002,6430.125
607.15612793,6438.025
607.435546875,6474.275
607.714782715,6475.4
607.99407959,6426.25
608.273376465,6399.35
608.552612305,6435.675
608.831848145,6427.475
609.111083984,6453.625
609.390258789,6415.325
609.669433594,6419.0
609.948608398,6507.175
610.227722168,6466.525
610.506713867,6408.95
610.785888672,6429.325
611.064880371,6419.425
611.34387207,6431.85
611.622924805,6426.475
611.901916504,6411.425
612.180847168,6360.65
612.459777832,6377.725
612.738647461,6369.9
613.01751709,6350.225
613.296447754,6276.25
613.575317383,6261.825
613.854064941,6201.325
614.132873535,6101.925
614.411621094,6032.675
614.690368652,5985.075
614.969177246,5939.425
615.247802734,5845.125
615.526489258,5821.55
615.805175781,5679.975
616.08380127,5562.0
616.362365723,5471.35
616.640991211,5396.4
616.919555664,5331.15
617.198059082,5472.3
617.4765625,5796.15
617.755126953,5965.75
618.033569336,5981.3
618.311950684,5981.0
618.590454102,5948.7
618.868774414,5944.775
619.147155762,5939.725
619.425598145,5930.825
619.703857422,5950.925
619.982177734,5944.9
620.260498047,5936.575
620.538757324,5932.75
620.816955566,5884.95
621.095214844,5826.45
621.373413086,5854.1
621.651550293,5915.825
621.929748535,5944.55
622.207824707,5905.025
622.485900879,5961.55
622.764038086,5922.225
623.042053223,6003.7
623.320007324,6015.8
623.598083496,6032.05
623.876037598,5997.45
624.153991699,6021.85
624.432006836,6033.0
624.709838867,6064.25
624.987731934,6032.975
625.265563965,6009.075
625.543395996,6043.125
625.821228027,6127.85
626.098999023,6084.775
626.376831055,6141.6
626.654541016,6184.275
626.932250977,6206.05
627.209960938,6253.875
627.487670898,6294.15
627.765319824,6301.175
628.04296875,6299.0
628.320495605,6336.325
628.598083496,6305.625
628.875671387,6341.775
629.153259277,6399.375
629.430725098,6461.55
629.708251953,6456.975
629.985656738,6463.3
630.263122559,6519.5
630.540588379,6539.85
630.817932129,6562.3
631.095275879,6590.875
631.372680664,6639.275
631.649963379,6672.075
631.927246094,6750.425
632.204589844,6772.6
632.481811523,6857.475
632.759033203,6936.075
633.036254883,6964.625
633.313415527,7043.075
633.590576172,7104.575
633.867736816,7218.775
634.144836426,7301.125
634.421875,7361.325
634.698913574,7410.95
634.976013184,7464.525
635.252990723,7557.6
635.529968262,7615.475
635.807006836,7673.7
636.08392334,7670.575
636.360839844,7555.15
636.637756348,7445.825
636.914611816,7414.75
637.191467285,7379.025
637.468261719,7506.825
637.745056152,7431.375
638.021789551,7467.05
638.298583984,7493.625
638.575317383,7549.35
638.851989746,7540.6
639.12878418,7564.075
639.405395508,7530.85
639.682006836,7579.35
639.958618164,7613.75
640.235229492,7577.65
640.511779785,7615.4
640.788330078,7570.125
641.064880371,7571.95
641.341308594,7560.225
641.617797852,7574.725
641.894226074,7574.525
642.170654297,7599.825
642.44708252,7594.325
642.723388672,7596.375
642.999755859,7592.625
643.276123047,7572.175
643.552429199,7554.55
643.828674316,7568.475
644.104919434,7550.225
644.381164551,7547.3
644.657348633,7570.525
644.933532715,7513.5
645.209716797,7534.2
645.485839844,7515.7
645.761901855,7540.5
646.038024902,7530.125
646.314086914,7602.95
646.590087891,7530.75
646.866149902,7575.025
647.142150879,7516.85
647.41809082,7472.825
647.694030762,7494.25
647.969970703,7492.425
648.245788574,7498.05
648.521728516,7501.1
648.797546387,7470.8
649.073303223,7501.05
649.349182129,7461.5
649.624938965,7435.725
649.900634766,7472.4
650.176391602,7489.35
650.452087402,7455.15
650.727783203,7448.0
651.003479004,7462.275
651.279052734,7464.25
651.554626465,7452.225
651.83026123,7479.05
652.105773926,7489.975
652.381286621,7442.55
652.656860352,7462.25
652.932312012,7457.1
653.207763672,7459.9
653.483215332,7503.875
653.758605957,7473.325
654.033935547,7503.975
654.309326172,7495.275
654.584716797,7527.55
654.859985352,7509.975
655.135253906,7549.55
655.410583496,7559.45
655.685791016,8717.875
655.9609375,13469.4
656.236206055,13196.75
656.511291504,8790.875
656.786437988,7728.3
657.061645508,7591.625
657.336669922,7575.65
657.611694336,7623.525
657.886779785,7680.675
658.161804199,7691.725
658.436828613,7613.675
658.711791992,7643.95
658.986755371,7669.075
659.261657715,7648.3
659.536621094,7693.875
659.811401367,7702.725
660.086303711,7736.625
660.36114502,7701.05
660.635864258,7713.175
660.910644531,7769.7
661.185424805,7752.175
661.460205078,7772.75
661.734863281,7798.85
662.009521484,7782.85
662.284179688,7810.95
662.558776855,7854.95
662.833435059,7886.45
663.108032227,7878.225
663.382568359,7879.225
663.657043457,7927.075
663.93157959,7939.2
664.206054688,7922.625
664.48046875,7991.75
664.755004883,8028.075
665.02935791,8021.35
665.303710938,8048.575
665.578125,8052.525
665.852416992,8074.35
666.126708984,8065.775
666.401062012,8080.375
666.675292969,8151.45
666.949462891,8134.875
667.223754883,8157.525
667.497924805,8191.925
667.772094727,8207.65
668.046264648,8195.725
668.3203125,8247.55
668.594421387,8256.9
668.868469238,8254.4
669.14251709,8289.125
669.416503906,8303.075
669.690551758,8325.225
669.964477539,8355.925
670.23840332,8338.35
670.512329102,8372.725
670.786254883,8312.925
671.060058594,8417.025
671.333984375,8417.925
671.607788086,8464.7
671.881530762,8441.2
672.155334473,8496.15
672.429077148,8495.75
672.702758789,8540.15
672.97644043,8523.25
673.25012207,8514.75
673.523742676,8496.375
673.797302246,8518.925
674.070922852,8575.2
674.344482422,8579.175
674.618041992,8590.8
674.891601562,8610.325
675.165100098,8642.825
675.438476562,8626.975
675.711975098,8666.325
675.985412598,8647.55
676.258789062,8647.325
676.532165527,8652.95
676.805480957,8669.6
677.078796387,8697.625
677.352111816,8732.15
677.625366211,8716.625
677.898620605,8710.925
678.171875,8760.825
678.445007324,8744.9
678.718200684,8787.2
678.991394043,8783.3
679.264404297,8803.6
679.537536621,8814.375
679.81060791,8840.175
680.083679199,8861.2
680.356689453,8836.75
680.629699707,8853.275
680.902648926,8847.725
681.175598145,8944.75
681.448547363,8952.325
681.721435547,8921.95
681.99420166,8922.075
682.267150879,8911.6
682.539916992,9001.175
682.812744141,8963.6
683.085510254,8969.0
683.358215332,8980.8
683.63092041,8957.375
683.903625488,8982.8
684.176330566,8971.825
684.448913574,8926.725
684.721557617,8926.825
684.99420166,9046.275
685.266662598,9036.85
685.539245605,9051.475
685.811767578,9104.325
686.084289551,9087.6
686.356689453,9146.225
686.629150391,9159.25
686.901550293,9162.375
687.17401123,9182.65
687.446350098,9236.7
687.718688965,9214.725
687.990966797,9309.875
688.263305664,9272.275
688.535522461,9264.125
688.807739258,9242.175
689.079956055,9332.95
689.352172852,9332.225
689.624328613,9340.125
689.896484375,9369.0
690.168518066,9366.225
690.440612793,9407.25
690.71270752,9451.425
690.984741211,9432.4
691.256713867,9486.575
691.528747559,9447.45
691.800720215,9463.7
692.072631836,9504.4
692.344543457,9548.15
692.616394043,9540.925
692.888244629,9576.175
693.160095215,9592.125
693.431945801,9643.5
693.703674316,9608.15
693.975463867,9597.675
694.247131348,9666.575
694.518859863,9630.45
694.790588379,9670.5
695.062255859,9674.175
695.33380127,9679.5
695.60546875,9675.4
695.87701416,9703.7
696.148498535,9753.6
696.42010498,9787.175
696.691589355,9797.725
696.96307373,9803.625
697.234558105,9874.425
697.50592041,9840.425
697.777282715,9882.4
698.048706055,9847.925
698.320068359,9931.3
698.591308594,9908.725
698.862670898,9872.475
699.133972168,9959.825
699.405151367,9941.725
699.676391602,9978.925
699.947570801,9945.8
700.21875,9985.725
700.489868164,9985.9
700.761047363,10005.625
701.032104492,10083.65
701.303100586,10003.55
701.57421875,10081.85
701.845214844,10072.825
702.116149902,10114.85
702.387207031,10081.125
702.65814209,10100.725
702.928955078,10162.475
703.199951172,10115.7
703.47076416,10107.55
703.741577148,10112.325
704.012451172,10179.45
704.28314209,10187.575
704.553955078,10160.525
704.824707031,10206.05
705.095397949,10221.775
705.366027832,10222.55
705.63671875,10252.45
705.907348633,10236.075
706.17791748,10286.45
706.448486328,10285.275
706.719055176,10332.825
706.989562988,10338.025
707.260131836,10360.6
707.530517578,10364.225
707.800964355,10384.125
708.071411133,10336.5
708.341796875,10381.575
708.612182617,10336.65
708.882446289,10351.625
709.152893066,10374.225
709.423156738,10410.775
709.693359375,10348.3
709.963623047,10389.9
710.233825684,10399.625
710.503967285,10341.6
710.774169922,10365.95
711.044311523,10366.7
711.31439209,10343.625
711.584533691,10414.5
711.854553223,10414.1
712.124572754,10431.9
712.39465332,10395.175
712.664611816,10456.35
712.934509277,10513.575
713.204467773,10504.575
713.474365234,10522.2
713.74420166,10498.25
714.014099121,10492.8
714.283874512,10448.55
714.553710938,10531.325
714.823486328,10514.025
715.093200684,10496.9
715.362915039,10506.025
715.632629395,10531.975
715.902282715,10479.325
716.171875,10487.85
716.441589355,10494.0
716.711181641,10448.65
716.980712891,10505.325
717.250244141,10485.225
717.519775391,10529.45
717.78918457,10548.6
718.058654785,10574.275
718.328125,10614.675
718.597473145,10527.7
718.866882324,10522.025
719.136230469,10552.85
719.405578613,10581.25
719.674865723,10619.125
719.944152832,10602.775
720.213439941,10556.3
720.48260498,10636.725
720.75177002,10609.325
721.020996094,10619.7
721.290100098,10620.9
721.559204102,10580.35
721.828308105,10619.425
722.097351074,10620.975
722.366455078,10582.225
722.635437012,10572.225
722.904418945,10550.125
723.173400879,10629.875
723.442321777,10640.2
723.711181641,10641.075
723.980102539,10655.4
724.248962402,10629.125
724.51776123,10625.15
724.786560059,10644.45
725.055358887,10622.975
725.324035645,10610.4
725.592834473,10619.75
725.86151123,10605.925
726.130187988,10635.85
726.398803711,10603.15
726.667419434,10627.25
726.935974121,10590.3
727.204528809,10545.625
727.473083496,10576.325
727.741638184,10522.475
728.010070801,10498.575
728.278564453,10516.125
728.546936035,10499.6
728.815368652,10412.65
729.08380127,10356.4
729.352111816,10299.075
729.620361328,10234.35
729.88873291,10277.975
730.156982422,10377.075
730.425231934,10384.375
730.693481445,10359.15
730.961669922,10418.7
731.229797363,10487.4
731.49798584,10486.45
731.766113281,10599.3
732.034118652,10643.75
732.302246094,10702.95
732.570251465,10746.925
732.838256836,10798.95
733.106262207,10871.025
733.374145508,10903.625
733.642089844,10987.075
733.909973145,11005.7
734.177856445,11125.9
734.445678711,11192.425
734.713562012,11327.725
734.981323242,11342.225
735.249084473,11408.525
735.516845703,11564.1
735.784545898,11650.925
736.052185059,11685.35
736.319885254,11840.325
736.587524414,11875.075
736.855102539,11950.075
737.122619629,12079.625
737.390197754,12092.95
737.657714844,12234.75
737.925170898,12286.95
738.192749023,12443.4
738.460144043,12480.875
738.727539062,12540.2
738.994995117,12681.575
739.262329102,12724.4
739.529663086,12891.675
739.79699707,12942.675
740.06427002,13014.775
740.331481934,13111.05
740.598754883,13186.075
740.865905762,13179.725
741.133056641,13412.2
741.40032959,13374.375
741.667358398,13499.75
741.934448242,13528.225
742.201599121,13573.875
742.468566895,13727.65
742.735534668,13745.125
743.002563477,13734.05
743.26953125,13733.875
743.536437988,13804.175
743.803405762,13922.225
744.0703125,13886.65
744.337097168,14038.425
744.604003906,13913.85
744.870727539,13990.475
745.137512207,14065.475
745.40423584,14096.775
745.670959473,14087.8
745.93762207,14106.825
746.204284668,14144.125
746.470947266,14154.35
746.737548828,14112.2
747.004089355,14209.1
747.270751953,14167.3
747.53717041,14228.775
747.803710938,14153.025
748.070251465,14118.6
748.336608887,14126.6
748.603027344,14085.55
748.869445801,14125.925
749.135803223,14110.975
749.402099609,14115.15
749.668457031,14122.175
749.934753418,14067.475
750.20098877,14018.1
750.467224121,14094.075
750.733459473,14079.025
750.999572754,14057.5
751.26574707,13946.325
751.531860352,13987.075
751.797912598,13962.9
752.064025879,13879.7
752.330078125,13906.6
752.596069336,13844.725
752.862060547,13774.975
753.127990723,13815.15
753.393920898,13782.875
753.659912109,13748.875
753.925720215,13800.35
754.19152832,13723.825
754.457397461,13659.375
754.723144531,13631.025
754.988952637,13566.975
755.254699707,13614.9
755.520385742,13649.7
755.786071777,13610.5
756.051696777,13596.6
756.317382812,13545.0
756.582946777,13479.1
756.848510742,13541.25
757.114074707,13442.1
757.379577637,13427.55
757.645080566,13529.35
757.910583496,13444.225
758.175964355,13362.825
758.441345215,13333.625
758.706848145,13164.475
758.972106934,13172.35
759.237426758,13238.45
759.502807617,13261.3
759.768005371,13245.6
760.03326416,13190.25
760.298522949,13091.0
760.563659668,13131.975
760.828857422,13090.2
761.093994141,13081.725
761.359130859,13013.575
761.624206543,12993.975
761.889282227,12943.8
762.15423584,12945.55
762.419250488,12929.05
762.684265137,12900.8
762.949157715,12845.6
763.214050293,12834.15
763.479003906,12825.3
763.743835449,12792.125
764.008666992,12741.625
764.2734375,12763.825
764.538208008,12784.35
764.802978516,12857.825
765.067687988,12756.775
765.332397461,12788.775
765.597045898,12727.75
765.861694336,12700.7
766.126342773,12636.05
766.390930176,12582.575
766.655395508,12523.8
766.920043945,12524.475
767.184509277,12533.75
767.448974609,12522.275
767.713439941,12497.225
767.977783203,12429.825
768.2421875,12465.325
768.506591797,12390.95
768.770874023,12542.3
769.03515625,12477.65
769.299499512,12422.95
769.563720703,12427.625
769.827941895,12386.625
770.092163086,12349.725
770.356323242,12320.625
770.620483398,12322.8
770.88458252,12367.55
771.148681641,12361.625
771.412719727,12331.025
771.676757812,12351.325
771.940734863,12281.675
772.204711914,12270.475
772.468688965,12256.2
772.73260498,12238.975
772.996459961,12242.825
773.260314941,10926.325
773.524169922,1387.3
773.787963867,158.625
774.051696777,122.8
774.315551758,119.275
774.579223633,122.175
774.842895508,118.825
775.106567383,121.3
775.370239258,117.875
775.633789062,121.375
775.897399902,122.675
776.160949707,117.6
776.424499512,122.675
776.687988281,123.175
776.951477051,122.2
777.214904785,116.575
777.47833252,120.375
