191.299911499,99.775
191.603515625,103.0
191.907119751,94.9
192.210693359,104.7
192.514251709,99.05
192.817810059,104.125
193.121368408,102.95
193.42489624,105.5
193.728408813,97.225
194.031936646,97.75
194.33543396,91.6
194.638916016,109.175
194.94241333,95.525
195.245880127,98.275
195.549331665,97.95
195.852767944,100.325
196.156204224,197.1
196.459625244,189.65
196.763015747,191.35
197.066436768,194.9
197.369812012,192.675
197.673187256,193.15
197.9765625,189.975
198.279922485,193.35
198.583251953,184.6
198.886581421,190.075
199.18989563,198.0
199.493209839,194.425
199.79649353,185.3
200.09979248,195.4
200.403076172,190.55
200.706314087,193.5
201.009567261,191.3
201.312820435,191.2
201.616027832,181.075
201.919235229,181.025
202.222457886,185.575
202.525634766,187.7
202.828826904,180.225
203.132003784,178.9
203.435150146,183.825
203.738296509,181.05
204.041412354,177.425
204.344558716,187.65
204.647659302,189.175
204.950759888,186.525
205.253845215,187.65
205.556930542,182.95
205.859985352,182.2
206.163024902,181.425
206.466079712,187.025
206.769104004,195.7
207.072113037,188.375
207.375137329,187.0
207.678131104,189.0
207.981109619,189.6
208.284088135,181.675
208.587036133,188.025
208.889984131,192.175
209.19291687,193.875
209.495849609,191.2
209.798751831,192.925
210.101654053,190.525
210.404556274,193.475
210.707427979,194.075
211.010269165,198.575
211.31312561,198.125
211.615982056,195.2
211.918807983,197.2
212.221618652,193.925
212.524429321,193.225
212.827224731,201.075
213.130004883,201.175
213.432769775,199.8
213.735534668,195.1
214.038269043,201.175
214.341003418,200.4
214.643737793,203.925
214.946456909,208.025
215.249145508,209.375
215.551834106,210.925
215.854507446,208.0
216.157165527,210.725
216.45980835,210.6
216.762451172,214.3
217.065078735,216.675
217.36769104,217.9
217.670303345,219.9
217.972885132,219.25
218.275466919,222.275
218.578048706,217.125
218.880599976,231.45
219.183120728,226.725
219.485656738,233.925
219.788192749,241.6
220.090682983,255.075
220.393188477,272.375
220.695663452,306.15
220.998138428,327.8
221.300582886,369.975
221.603042603,403.95
221.905487061,460.375
222.207901001,524.5
222.510299683,594.575
222.812728882,681.15
223.115097046,771.325
223.41746521,870.25
223.719848633,966.1
224.022171021,1066.0
224.324508667,1170.5
224.626846313,1312.925
224.929168701,1417.925
225.231460571,1559.725
225.533737183,1668.95
225.836013794,1800.9
226.138290405,1907.8
226.440536499,2009.55
226.742767334,2120.75
227.044998169,2223.85
227.347213745,2344.25
227.649429321,2431.375
227.951629639,2519.1
228.253799438,2574.65
228.555953979,2661.675
228.858123779,2715.475
229.160263062,2773.975
229.462371826,2808.875
229.764511108,2883.275
230.066619873,2903.275
230.36869812,2944.65
230.670776367,2989.075
230.972854614,3042.65
231.274902344,3087.075
231.576950073,3138.325
231.878967285,3140.575
232.180999756,3219.625
232.48298645,3240.775
232.784988403,3282.425
233.086975098,3319.7
233.388946533,3363.3
233.69090271,3398.65
233.992858887,3433.1
234.294769287,3432.875
234.596694946,3458.1
234.898605347,3504.7
235.200500488,3509.15
235.502380371,3515.425
235.804244995,3517.675
236.106109619,3486.5
236.407958984,3486.05
236.709777832,3498.65
237.011581421,3463.475
237.313400269,3460.55
237.615203857,3429.175
237.916976929,3425.725
238.21875,3389.7
238.520507812,3384.675
238.822250366,3367.0
239.12399292,3318.7
239.425704956,3293.25
239.727401733,3234.125
240.02911377,3230.575
240.330780029,3177.575
240.632446289,3153.4
240.93409729,3108.525
241.23576355,3095.3
241.537384033,3055.05
241.839004517,3024.075
242.140594482,2979.775
242.442199707,2972.025
242.743774414,2926.1
243.045333862,2883.775
243.346923828,2854.125
243.648452759,2822.075
243.949966431,2778.5
244.251495361,2756.375
244.552993774,2703.2
244.854492188,2673.0
245.155975342,2626.15
245.457443237,2600.475
245.758880615,2551.35
246.060333252,2518.125
246.36177063,2461.175
246.66317749,2420.025
246.964569092,2376.025
247.265945435,2328.775
247.567337036,2297.75
247.86869812,2283.525
248.170059204,2233.05
248.471389771,2198.4
248.772705078,2183.875
249.074035645,2158.775
249.375335693,2138.125
249.676620483,2106.3
249.977890015,2099.75
250.279159546,2093.525
250.58039856,2084.725
250.881637573,2061.5
251.182876587,2051.175
251.484069824,2046.2
251.785263062,2028.825
252.086456299,2038.775
252.387619019,2027.0
252.688781738,2018.475
252.989929199,2010.85
253.291061401,2020.575
253.592178345,2017.4
253.893280029,2008.25
254.194366455,1997.725
254.49546814,1987.5
254.796524048,1986.675
255.097579956,1983.45
255.398620605,1968.75
255.699645996,1986.475
256.000640869,1960.675
256.30166626,1970.775
256.602661133,1974.325
256.903656006,1959.8
257.204589844,1947.375
257.505523682,1948.3
257.80645752,1947.15
258.107391357,1952.525
258.408294678,1941.175
258.709228516,1927.95
259.010070801,1921.9
259.310943604,1935.05
259.611846924,1929.025
259.912658691,1918.825
260.213500977,1917.825
260.514343262,1908.4
260.815124512,1894.8
261.115936279,1919.25
261.416717529,1937.175
261.717468262,1942.825
262.018218994,1935.85
262.318969727,1966.8
262.619689941,1998.775
262.920410156,2032.075
263.221130371,2071.25
263.521789551,2127.475
263.822479248,2157.65
264.123138428,2214.775
264.42376709,2256.0
264.72442627,2274.3
265.025054932,2330.875
265.325622559,2383.15
265.626251221,2411.375
265.926818848,2442.975
266.227386475,2470.575
266.527954102,2505.225
266.828460693,2567.275
267.12902832,2577.525
267.429534912,2599.925
267.730010986,2644.225
268.030517578,2682.775
268.330993652,2713.825
268.631439209,2756.95
268.931915283,2805.975
269.232299805,2841.85
269.532745361,2891.825
269.8331604,2929.4
270.133544922,2969.35
270.433929443,3040.575
270.734313965,3101.275
271.034637451,3154.225
271.334991455,3213.65
271.635314941,3278.8
271.935638428,3358.4
272.235931396,3456.325
272.536254883,3550.6
272.836486816,3638.125
273.136749268,3767.2
273.437011719,3885.05
273.737213135,4028.25
274.037445068,4156.35
274.337677002,4287.75
274.6378479,4430.4
274.938049316,4597.8
275.238220215,4735.575
275.538360596,4911.3
275.838500977,5026.575
276.138641357,5230.375
276.438751221,5324.525
276.738830566,5488.2
277.03894043,5627.2
277.338989258,5824.025
277.639038086,5933.475
277.939056396,6088.975
278.239105225,6213.775
278.539093018,6366.025
278.839141846,6504.275
279.139129639,6591.05
279.439086914,6727.025
279.739044189,6877.525
280.039001465,7039.9
280.338928223,7147.075
280.63885498,7253.45
280.938781738,7385.95
281.238647461,7463.1
281.538513184,7536.45
281.838409424,7657.425
282.138244629,7746.65
282.438079834,7818.575
282.737945557,7953.4
283.037719727,7967.525
283.337524414,8066.725
283.637298584,8116.425
283.937072754,8192.3
284.236816406,8246.325
284.536560059,8260.025
284.836303711,8360.65
285.136016846,8463.95
285.43572998,8476.5
285.735412598,8487.525
286.035064697,8559.25
286.334747314,8618.7
286.634368896,8696.0
286.933990479,8655.3
287.233642578,8630.925
287.533203125,8626.85
287.832824707,8602.275
288.132385254,8519.05
288.431945801,8394.775
288.731506348,8299.4
289.031036377,8123.325
289.330566406,8016.025
289.630065918,8028.825
289.92956543,8001.7
290.229034424,8134.325
290.528503418,8327.075
290.827941895,8541.5
291.127380371,8701.55
291.42678833,8854.25
291.726226807,9008.425
292.025604248,9046.575
292.324981689,9073.125
292.624359131,9127.05
292.923736572,9132.4
293.223052979,9174.625
293.522369385,9176.4
293.821685791,9102.475
294.12097168,9113.4
294.420257568,9099.425
294.719543457,9111.675
295.018768311,9087.125
295.318023682,9002.725
295.617248535,8933.825
295.916442871,8888.75
296.215667725,8818.525
296.514862061,8648.525
296.813995361,8423.8
297.11315918,8193.5
297.412322998,8018.45
297.711425781,8028.675
298.010559082,8181.275
298.309631348,8419.175
298.608734131,8677.275
298.907806396,8890.925
299.206848145,9061.725
299.505889893,9121.375
299.804901123,9245.55
300.103912354,9347.5
300.402954102,9421.575
300.701904297,9490.275
301.00088501,9575.275
301.299835205,9673.05
301.5987854,9665.275
301.897735596,9774.75
302.196624756,9847.2
302.495513916,9951.875
302.794403076,9971.5
303.093292236,10014.3
303.392120361,10081.4
303.690979004,10177.775
303.989837646,10228.175
304.288604736,10289.625
304.587402344,10277.275
304.886199951,10354.575
305.184967041,10377.3
305.483734131,10439.95
305.782501221,10446.9
306.081176758,10470.1
306.37991333,10486.875
306.678619385,10530.725
306.977294922,10565.5
307.275970459,10568.725
307.574645996,10554.975
307.873260498,10550.875
308.171875,10584.25
308.470489502,10552.475
308.769104004,10478.85
309.067687988,10470.95
309.366241455,10485.2
309.664794922,10432.0
309.963348389,10422.425
310.261871338,10447.175
310.560394287,10434.075
310.858856201,10460.825
311.157348633,10514.45
311.455810547,10526.2
311.754272461,10530.925
312.052703857,10595.175
312.351135254,10635.625
312.649536133,10640.95
312.947937012,10598.075
313.246307373,10609.075
313.544647217,10629.0
313.843017578,10576.2
314.141387939,10573.7
314.439697266,10580.325
314.738006592,10488.775
315.036315918,10409.3
315.334564209,10336.375
315.6328125,10247.6
315.931091309,10183.125
316.229309082,10028.15
316.527526855,9891.975
316.825744629,9871.775
317.123901367,9705.225
317.422088623,9685.3
317.720245361,9693.525
318.0184021,9716.275
318.316497803,9752.8
318.614654541,9772.025
318.912750244,9863.675
319.21081543,9873.625
319.50894165,9910.9
319.806945801,9902.6
320.104980469,9914.6
320.403045654,9895.125
320.701049805,9860.175
320.999023438,9823.825
321.297027588,9778.925
321.595001221,9760.95
321.892913818,9713.3
322.190887451,9633.075
322.488830566,9568.625
322.786712646,9520.525
323.084625244,9407.775
323.382507324,9387.75
323.680358887,9301.525
323.978210449,9201.825
324.276062012,9152.4
324.573852539,9110.1
324.871643066,9001.8
325.169464111,8923.45
325.467224121,8886.3
325.764984131,8787.725
326.062744141,8706.075
326.360473633,8612.225
326.658203125,8543.325
326.955871582,8478.375
327.253570557,8384.175
327.551239014,8338.675
327.848907471,8268.0
328.146514893,8178.225
328.444152832,8060.975
328.741790771,8043.5
329.039367676,7966.525
329.336914062,7883.625
329.634521484,7806.05
329.932067871,7749.525
330.229553223,7675.1
330.527160645,7615.4
330.824615479,7560.05
331.12210083,7461.475
331.419586182,7347.025
331.717041016,7261.2
332.014465332,7165.5
332.311920166,7131.375
332.609313965,7057.275
332.906707764,7040.075
333.204101562,7042.25
333.501495361,7062.75
333.798828125,7106.6
334.096160889,7145.85
334.39352417,7197.575
334.690795898,7257.8
334.988098145,7297.7
335.285400391,7378.35
335.582641602,7385.7
335.879882812,7445.6
336.177124023,7447.6
336.474334717,7503.4
336.77154541,7520.025
337.068725586,7547.25
337.365905762,7555.275
337.66305542,7547.725
337.960205078,7583.625
338.257324219,7593.25
338.554443359,7591.075
338.8515625,7631.65
339.148590088,7638.575
339.445648193,7642.075
339.742736816,7592.675
340.039764404,7605.125
340.336761475,7526.075
340.63381958,7470.35
340.930755615,7415.425
341.227722168,7334.65
341.524688721,7252.4
341.821624756,7204.325
342.118560791,7232.8
342.415496826,7326.6
342.712402344,7488.75
343.009246826,7646.2
343.306121826,7760.225
343.602966309,7829.9
343.899810791,7909.525
344.196624756,7998.05
344.493438721,8059.125
344.79019165,8086.125
345.086975098,8159.5
345.383758545,8209.075
345.680480957,8178.575
345.977203369,8198.65
346.273956299,8255.525
346.570617676,8225.3
346.86730957,8270.05
347.163970947,8222.875
347.460601807,8229.45
347.757232666,8279.775
348.053894043,8234.4
348.350463867,8173.7
348.647064209,8129.6
348.943634033,8116.85
349.24017334,8128.325
349.536712646,8081.3
349.833251953,8072.475
350.129760742,8021.25
350.426208496,8030.725
350.722747803,7975.475
351.019195557,7985.025
351.315612793,7906.45
351.612060547,7876.85
351.908508301,7806.6
352.204864502,7756.45
352.501281738,7678.8
352.797637939,7609.9
353.093963623,7518.325
353.390319824,7443.3
353.686645508,7326.7
353.982940674,7256.05
354.27923584,7208.375
354.575531006,7140.175
354.871765137,7118.45
355.167999268,7074.725
355.464233398,7084.65
355.760437012,7094.325
356.056640625,7059.55
356.352813721,7088.475
356.648956299,7072.325
356.945129395,7095.175
357.241271973,7050.1
357.537384033,7074.525
357.833496094,7007.725
358.129577637,7003.325
358.425628662,6978.625
358.721679688,6936.2
359.017730713,6885.4
359.313720703,6826.15
359.609710693,6791.575
359.905761719,6735.2
360.201721191,6668.15
360.497650146,6594.175
360.793609619,6551.225
361.089538574,6455.225
361.385437012,6375.75
361.681365967,6324.4
361.977233887,6264.125
362.273071289,6166.725
362.568908691,6047.275
362.864746094,5917.825
363.160552979,5778.3
363.456359863,5563.125
363.752166748,5404.775
364.047912598,5294.55
364.343658447,5249.9
364.639434814,5282.675
364.935119629,5328.1
365.230834961,5393.325
365.526550293,5405.775
365.822174072,5430.575
366.117858887,5440.325
366.413482666,5479.3
366.709075928,5496.0
367.004730225,5372.95
367.300292969,5358.575
367.595855713,5415.325
367.891448975,5288.525
368.186981201,5156.725
368.482513428,5122.7
368.778015137,5097.875
369.073547363,5047.925
369.36895752,5045.1
369.664428711,4921.925
369.95993042,4803.75
370.255310059,4739.5
370.550720215,4701.95
370.846160889,4661.925
371.14151001,4614.6
371.436859131,4582.1
371.73223877,4568.725
372.027557373,4515.4
372.322875977,4436.375
372.618164062,4393.75
372.913482666,4358.675
373.208709717,4333.425
373.503967285,4261.175
373.799194336,4206.125
374.094421387,4205.725
374.389648438,4159.325
374.684844971,4140.25
374.979980469,4181.425
375.275146484,4202.5
375.570281982,4218.15
375.865386963,4224.55
376.160522461,4163.1
376.455596924,4152.625
376.750640869,4258.7
377.045715332,4252.175
377.340759277,4287.625
377.635772705,4328.15
377.93081665,4364.85
378.225769043,4439.05
378.520751953,4473.45
378.815734863,4447.825
379.110656738,4596.825
379.405548096,4784.675
379.700500488,4599.8
379.995391846,4377.725
380.290252686,4415.65
380.585083008,4514.8
380.879974365,4573.85
381.17477417,4449.125
381.469543457,4408.5
381.764404297,4384.425
382.059143066,4413.2
382.353912354,4486.675
382.648651123,4592.1
382.943389893,4559.375
383.238067627,4379.05
383.532775879,4395.375
383.827484131,4312.9
384.12210083,4295.85
384.416778564,4243.125
384.711425781,4149.425
385.006011963,4187.1
385.300628662,4167.475
385.595184326,4215.625
385.88973999,4327.075
386.184295654,4426.675
386.478820801,4489.65
386.77331543,4590.625
387.067840576,4697.75
387.362335205,4765.475
387.656768799,4854.675
387.951202393,4873.2
388.245635986,4945.925
388.540039062,5012.225
388.834472656,5078.675
389.128875732,4995.875
389.423187256,4754.625
389.717559814,4692.275
390.011871338,4799.075
390.306182861,4819.075
390.600463867,4840.75
390.894775391,4906.0
391.189025879,4930.125
391.48324585,4909.35
391.777526855,4958.9
392.071685791,5192.95
392.365875244,5265.675
392.660064697,5329.0
392.95425415,5678.175
393.248382568,5661.1
393.542510986,5190.075
393.836608887,4995.975
394.130706787,5004.1
394.424804688,4941.95
394.71887207,5061.55
395.012878418,5038.15
395.306915283,4924.825
395.600921631,4880.45
395.894927979,4820.35
396.188903809,4848.65
396.482879639,4887.75
396.776794434,5094.4
397.070739746,5052.825
397.364654541,5100.175
397.658538818,5487.5
397.952423096,5490.7
398.246307373,5474.05
398.540100098,5986.975
398.833953857,5867.275
399.127746582,5392.5
399.421508789,5387.725
399.715301514,5323.425
400.009063721,5235.675
400.30279541,5085.8
400.596496582,5006.25
400.890258789,5179.725
401.183929443,5269.325
401.47756958,5150.05
401.771240234,4904.075
402.064880371,4942.6
402.35848999,4979.65
402.652130127,4876.475
402.945678711,4956.75
403.239257812,4905.45
403.532775879,4840.325
403.82635498,4889.225
404.119842529,4823.55
404.413360596,4805.675
404.706848145,4858.625
405.000274658,4797.875
405.293762207,4871.325
405.587188721,4933.3
405.880584717,4786.5
406.17401123,4581.0
406.467407227,4379.275
406.760742188,4405.775
407.054107666,4439.475
407.347442627,4373.2
407.640716553,4369.125
407.934051514,4417.9
408.227325439,4479.6
408.520568848,4713.975
408.813842773,4803.05
409.107086182,4602.1
409.400238037,4549.9
409.693450928,4478.7
409.986633301,4603.3
410.279754639,4527.675
410.572875977,4229.6
410.86605835,4146.75
411.159118652,4180.1
411.452209473,4191.125
411.745330811,4055.85
412.038360596,3974.475
412.331390381,3995.425
412.624420166,4063.875
412.917388916,3954.675
413.210388184,3778.625
413.503387451,3758.825
413.796295166,3646.725
414.089233398,3483.7
414.382141113,3387.975
414.675048828,3385.35
414.967926025,3417.15
415.260803223,3355.85
415.55368042,3385.55
415.846466064,3355.025
416.139282227,3444.45
416.432098389,3567.7
416.724853516,3572.725
417.017608643,3520.85
417.31036377,3531.3
417.603088379,3662.675
417.895782471,3633.475
418.188476562,3598.7
418.481140137,3673.875
418.773803711,3738.75
419.066436768,3710.275
419.359039307,3804.2
419.651641846,3802.15
419.944244385,3801.6
420.236816406,3752.85
420.529327393,3982.475
420.821899414,4070.4
421.114379883,3988.025
421.406860352,4264.7
421.699371338,4520.525
421.991821289,4454.05
422.284240723,4253.375
422.576721191,4098.75
422.869110107,3986.1
423.161468506,3929.9
423.453857422,3960.05
423.74621582,3840.35
424.038543701,3698.85
424.330871582,3680.575
424.623168945,3598.2
424.915435791,3753.2
425.207702637,3719.075
425.499969482,3675.525
425.792205811,3600.575
426.084411621,3342.95
426.376617432,3435.725
426.668762207,3487.35
426.9609375,3374.475
427.253082275,3493.7
427.545196533,3939.125
427.837310791,3649.025
428.129425049,3334.475
428.421447754,3583.325
428.713531494,3591.325
429.005554199,3573.575
429.297576904,3594.75
429.589599609,4042.875
429.881561279,4386.65
430.173522949,4165.1
430.465484619,4105.15
430.757415771,4193.775
431.049316406,3956.05
431.341186523,3700.15
431.633117676,3599.4
431.924957275,3246.575
432.21673584,3150.925
432.508636475,3302.125
432.800415039,3329.65
433.092163086,3227.775
433.383972168,3202.375
433.675689697,3975.625
433.967437744,4489.825
434.259155273,3459.9
434.550872803,3136.125
434.842498779,3194.6
435.134185791,3329.95
435.425842285,3356.1
435.717437744,3253.575
436.009063721,3055.0
436.30065918,3203.775
436.592224121,3595.4
436.883758545,3364.575
437.175323486,3100.475
437.466827393,3071.95
437.758331299,3090.95
438.049804688,3122.625
438.341247559,3183.375
438.63269043,3266.225
438.924163818,3253.325
439.215515137,3227.925
439.50692749,3113.4
439.798309326,3113.45
440.089660645,3122.625
440.380981445,3029.95
440.672332764,3017.775
440.963623047,3313.15
441.254882812,3813.875
441.546173096,4013.15
441.837402344,3749.425
442.128631592,3531.725
442.41986084,3514.15
442.711029053,3367.525
443.002197266,3453.275
443.293365479,3659.825
443.584503174,3806.9
443.875610352,3763.6
444.166717529,3491.575
444.457794189,3539.9
444.748840332,3540.525
445.039916992,3478.625
445.330932617,3599.05
445.621948242,3410.05
445.912963867,3198.075
446.203918457,3461.125
446.494812012,3706.15
446.785827637,3488.75
447.076721191,3281.375
447.367584229,3290.725
447.658447266,3241.825
447.949371338,3289.025
448.24017334,3167.075
448.530975342,3091.05
448.821838379,3278.55
449.112579346,3345.5
449.40335083,3282.7
449.694152832,3310.175
449.984863281,3326.075
450.27557373,3252.825
450.56628418,3312.7
450.856933594,3340.55
451.147583008,3173.675
451.438262939,3048.0
451.728881836,3264.8
452.019470215,3377.825
452.310089111,3148.55
452.600646973,3185.375
452.891174316,3226.3
453.181732178,3056.725
453.472229004,2898.75
453.762695312,3018.575
454.053222656,3051.575
454.343658447,2899.4
454.634063721,2844.35
454.924530029,3047.225
455.214935303,3197.075
455.505279541,3258.825
455.795715332,3108.55
456.086029053,2904.075
456.376312256,2886.075
456.666687012,2918.525
456.956939697,3028.825
457.247192383,3028.375
457.537445068,3110.0
457.827728271,3312.2
458.117919922,3235.85
458.408081055,3154.4
458.698303223,3342.1
458.988433838,3292.625
459.278564453,3081.425
459.568725586,3385.875
459.858825684,3531.025
460.148864746,3189.775
460.438995361,3135.8
460.729034424,3205.0
461.019042969,3201.175
461.309082031,3412.6
461.599060059,3288.625
461.889007568,2789.375
462.179016113,2595.325
462.468933105,2848.3
462.75881958,2972.65
463.048736572,2694.725
463.338592529,2975.65
463.628448486,3388.2
463.918365479,3059.425
464.2081604,3243.125
464.497924805,3205.675
464.787780762,3335.8
465.077514648,3679.85
465.367218018,3255.825
465.657012939,3483.025
465.946685791,3934.575
466.236358643,3495.35
466.526092529,2897.15
466.815734863,2906.225
467.105316162,2825.125
467.394927979,2860.05
467.684570312,2713.65
467.974121094,2795.025
468.263671875,2923.2
468.553222656,2689.775
468.842773438,2573.325
469.132232666,2453.175
469.42175293,2479.6
469.711212158,2462.35
470.000640869,2318.0
470.290100098,2386.7
470.579498291,2432.275
470.868835449,2411.075
471.158294678,2360.675
471.447601318,2359.275
471.736907959,2450.1
472.026275635,2499.475
472.315551758,2501.925
472.604797363,2487.325
472.894104004,2638.325
473.183319092,2750.3
473.47253418,2737.725
473.761779785,2744.4
474.05090332,2649.675
474.340087891,2599.05
474.629241943,2541.65
474.918365479,2721.275
475.207427979,3030.35
475.496551514,3056.075
475.785614014,2762.475
476.074645996,2542.375
476.363708496,2635.225
476.652679443,2783.55
476.941650391,2597.025
477.230682373,2438.525
477.519622803,2438.925
477.808502197,2600.85
478.097412109,2898.425
478.386352539,2839.25
478.675201416,2549.35
478.964050293,2429.875
479.25289917,2659.8
479.541717529,2708.525
479.830474854,2534.8
480.11932373,2922.625
480.408050537,3130.625
480.696777344,2700.275
480.985534668,2554.0
481.274200439,2660.85
481.562866211,2949.75
481.851593018,2961.925
482.140197754,2897.6
482.428833008,2718.025
482.717468262,2481.3
483.006011963,2528.775
483.294586182,2660.4
483.5831604,2703.85
483.871673584,2548.675
484.16015625,2708.525
484.448699951,2974.15
484.7371521,3037.575
485.02557373,3040.45
485.314025879,2739.4
485.602416992,4243.95
485.890777588,14935.325
486.179199219,13426.525
486.467559814,3605.075
486.755859375,2626.5
487.044219971,3064.925
487.332519531,3274.125
487.620758057,2816.125
487.908966064,2533.475
488.197265625,2287.775
488.485473633,2186.65
488.773651123,2314.925
489.061859131,2306.825
489.350006104,2257.175
489.638122559,2188.425
489.926300049,2221.95
490.214355469,2156.8
490.502441406,2091.225
490.790527344,2019.3
491.078552246,2237.2
491.366546631,2236.725
491.654602051,1985.2
491.942565918,2059.075
492.230499268,2117.775
492.518493652,2080.225
492.806396484,2114.675
493.094268799,2026.625
493.382202148,2052.35
493.670074463,2187.7
493.957885742,2019.825
494.245727539,2017.45
494.533508301,2213.7
494.821289062,2092.225
495.109100342,1911.3
495.396850586,1854.15
495.684539795,1806.325
495.972290039,2047.65
496.25994873,2446.575
496.547607422,2448.375
496.835296631,2260.05
497.122894287,1864.4
497.410522461,1784.7
497.6980896,1781.9
497.985687256,1757.1
498.273223877,1868.675
498.560760498,1967.25
498.848266602,1965.525
499.135772705,1958.85
499.423217773,2006.45
499.710693359,2119.425
499.998138428,2058.975
500.285522461,1855.95
500.572937012,1761.8
500.860290527,1838.7
501.147644043,1951.5
501.434997559,2224.75
501.722290039,2065.55
502.00958252,1803.15
502.296875,2109.0
502.584106445,2088.975
502.871337891,1885.4
503.158599854,1965.25
503.445770264,2065.975
503.732910156,2028.225
504.020141602,1819.2
504.307220459,1787.55
504.594329834,1818.975
504.881469727,1764.45
505.168518066,1841.575
505.455535889,1925.025
505.742614746,1786.4
506.029632568,1702.3
506.316589355,1930.275
506.603637695,2025.35
506.890563965,1808.525
507.177459717,1609.325
507.464385986,1508.3
507.751312256,1762.05
508.038146973,1872.3
508.325012207,1711.6
508.611877441,1787.65
508.898681641,1790.825
509.185424805,1606.55
509.472259521,1557.35
509.759002686,1664.25
510.045715332,1702.075
510.332458496,1619.2
510.619140625,1700.925
510.905761719,1605.55
511.192504883,1578.8
511.479095459,1644.325
511.765686035,1592.8
512.052307129,1486.3
512.338928223,1427.425
512.625427246,1487.8
512.91204834,1575.7
513.198486328,1531.475
513.484985352,1499.15
513.77142334,1418.3
514.057922363,1470.375
514.344299316,1466.625
514.63079834,1420.35
514.917175293,1403.7
515.203552246,1289.625
515.489868164,1266.5
515.776245117,1403.05
516.0625,1456.275
516.348815918,1340.125
516.635070801,1392.15
516.921325684,1451.425
517.207580566,1379.425
517.493774414,1271.4
517.779968262,1287.4
518.066101074,1321.55
518.352294922,1268.55
518.638366699,1285.5
518.924499512,1366.05
519.210632324,1460.3
519.496643066,1418.8
519.782714844,1301.9
520.068786621,1259.4
520.354736328,1219.75
520.640686035,1153.475
520.926757812,1222.0
521.212646484,1320.225
521.498535156,1326.3
521.784484863,1259.7
522.0703125,1172.9
522.356262207,1200.9
522.642089844,1289.275
522.927856445,1281.35
523.213684082,1270.45
523.499511719,1249.3
523.78527832,1301.75
524.070983887,1380.775
524.356750488,1340.075
524.64239502,1300.5
524.928039551,1281.9
525.213806152,1307.25
525.499389648,1290.2
525.784973145,1333.75
526.070617676,1383.55
526.356140137,1341.45
526.641723633,1352.2
526.927307129,1426.275
527.212768555,1433.35
527.498291016,1396.575
527.783752441,1397.675
528.069213867,1378.7
528.354675293,1397.975
528.640014648,1597.6
528.925476074,1679.725
529.21081543,1586.3
529.496154785,1570.15
529.781555176,1522.575
530.066833496,1552.5
530.352050781,1561.275
530.637390137,1546.425
530.922607422,1535.25
531.207824707,1548.875
531.493041992,1528.475
531.778198242,1607.3
532.063354492,1579.8
532.348571777,1520.45
532.633666992,1536.75
532.918762207,1632.85
533.203857422,1735.425
533.488891602,1762.85
533.773925781,1706.025
534.059020996,1671.1
534.343933105,1689.15
534.628967285,1674.55
534.91394043,1691.725
535.198852539,1712.725
535.483703613,1685.625
535.768676758,1621.05
536.053527832,1613.8
536.338317871,1567.9
536.62322998,1499.825
536.90802002,1467.65
537.192810059,1492.6
537.477539062,1585.6
537.762329102,1625.15
538.047058105,1670.85
538.331726074,1725.875
538.616455078,1705.425
538.901123047,1672.7
539.18572998,1732.7
539.470397949,1730.225
539.755004883,1717.65
540.039550781,1681.575
540.32409668,1624.275
540.608703613,1682.4
540.893188477,1792.175
541.17767334,1806.175
541.462158203,1814.925
541.746643066,1740.925
542.031066895,1794.375
542.315429688,1848.125
542.59979248,1841.825
542.884216309,1821.525
543.168579102,1807.55
543.452941895,1830.7
543.737243652,1893.075
544.021484375,1942.1
544.305725098,1929.35
544.590026855,1904.925
544.874267578,1923.925
545.158447266,2012.25
545.442626953,1905.825
545.726806641,1779.6
546.010925293,1819.4
546.29510498,1856.175
546.579162598,1844.65
546.863220215,1890.05
547.147277832,1968.05
547.431335449,2067.8
547.715332031,2132.375
547.999328613,2263.8
548.283325195,2285.85
548.567260742,2094.2
548.851135254,2072.45
549.135070801,2039.5
549.419006348,1932.425
549.702819824,2049.925
549.986755371,2131.65
550.270507812,2086.8
550.554321289,2143.3
550.83807373,2148.3
551.121826172,2100.725
551.405517578,2130.1
551.689331055,2255.6
551.973022461,2553.275
552.256652832,2607.05
552.540344238,2489.5
552.823974609,2474.75
553.107543945,2449.8
553.391174316,2496.875
553.674743652,2578.55
553.958251953,2585.975
554.241821289,2594.7
554.525268555,2515.2
554.808776855,2521.025
555.092285156,2747.45
555.375671387,2843.45
555.659057617,2839.225
555.942504883,2876.725
556.225891113,2920.85
556.509216309,2870.175
556.792541504,2751.275
557.075866699,2859.2
557.359130859,2895.225
557.64239502,2897.25
557.92565918,3000.45
558.208862305,2956.8
558.49206543,2888.0
558.77532959,2904.1
559.058410645,2964.325
559.341552734,2941.3
559.624694824,3016.925
559.907775879,3090.05
560.190856934,3238.725
560.473937988,3228.925
560.756896973,3269.85
561.039978027,3326.8
561.322937012,3256.05
561.605895996,3244.9
561.88885498,3202.8
562.171813965,3206.175
562.454650879,3202.8
562.737548828,3242.35
563.020446777,3331.05
563.303283691,3356.85
563.58605957,3388.6
563.868896484,3418.725
564.151672363,3482.1
564.434387207,3502.925
564.717163086,3477.2
564.99987793,3531.3
565.282531738,3597.625
565.565185547,3525.0
565.847839355,3534.425
566.130432129,3679.425
566.413085938,3648.425
566.695678711,3660.55
566.978149414,3782.35
567.260681152,3961.125
567.543273926,4057.375
567.825744629,3942.6
568.108154297,3993.3
568.390686035,4134.825
568.673095703,4283.3
568.955505371,4316.1
569.237854004,4369.575
569.520202637,4688.75
569.802490234,4946.9
570.084838867,4941.125
570.367126465,4710.2
570.649414062,4752.875
570.93170166,5157.525
571.213928223,5261.15
571.496154785,4976.75
571.778381348,5226.4
572.06048584,5548.875
572.342590332,4980.7
572.624755859,4584.075
572.906860352,4647.025
573.188903809,5455.925
573.470947266,5743.95
573.752990723,5459.925
574.03503418,5607.55
574.317016602,6049.725
574.598937988,5784.2
574.88092041,5646.0
575.162841797,5858.75
575.444763184,5419.8
575.726623535,5107.55
576.008483887,5156.45
576.290344238,5667.15
576.572143555,5891.6
576.853881836,5965.625
577.135681152,5829.35
577.417419434,5896.1
577.699157715,6925.575
577.980895996,7130.425
578.262573242,6346.875
578.544128418,5777.2
578.825866699,5699.525
579.107421875,5355.05
579.388977051,5564.275
579.670593262,6025.425
579.952148438,5841.35
580.233642578,5943.575
580.515197754,6094.475
580.796691895,5729.775
581.078125,5941.55
581.359619141,7696.275
581.640991211,7836.25
581.922363281,6744.65
582.203796387,6823.8
582.485107422,6371.35
582.766418457,5921.1
583.047790527,5733.125
583.329040527,5609.4
583.610290527,5431.1
583.891540527,5560.9
584.172790527,5935.725
584.453918457,5956.775
584.735107422,6042.475
585.016235352,6542.5
585.297363281,6512.425
585.578552246,6276.375
585.859619141,6211.75
586.140625,5976.6
586.421630859,5801.35
586.702697754,5846.6
586.983642578,6105.325
587.264648438,6306.675
587.545654297,6236.05
587.826477051,6171.425
588.107421875,5931.3
588.388305664,5968.175
588.669189453,6068.3
588.950012207,5912.9
589.230834961,5781.025
589.511657715,5876.45
589.792358398,6008.05
590.073120117,6026.275
590.353881836,5955.875
590.63458252,5990.125
590.915283203,5948.775
591.195922852,5940.925
591.4765625,5989.65
591.757202148,6050.75
592.037780762,6023.55
592.31829834,6048.975
592.598937988,6276.725
592.879394531,6474.3
593.159912109,6361.825
593.440429688,6284.625
593.720825195,6242.4
594.001281738,6227.95
594.281677246,6140.025
594.562072754,6177.625
594.842407227,6271.825
595.122802734,6329.35
595.403137207,6305.45
595.683410645,6265.25
595.963623047,6249.5
596.243896484,6201.8
596.524169922,6186.225
596.804382324,6205.275
597.084533691,6257.45
597.364746094,6273.15
597.644836426,6305.275
597.924987793,6299.575
598.205078125,6227.225
598.485107422,6277.025
598.765197754,6414.325
599.045227051,6451.8
599.325195312,6378.4
599.605224609,6311.55
599.885192871,6369.2
600.165100098,6403.725
600.445007324,6361.85
600.724914551,6337.275
601.004760742,6368.725
601.284667969,6388.925
601.56451416,6334.825
601.844238281,6363.075
602.124084473,6358.85
602.403808594,6349.8
602.683532715,6397.625
602.963256836,6367.475
603.242919922,6421.3
603.522583008,6474.575
603.802246094,6435.1
604.081848145,6423.275
604.36138916,6387.325
604.641052246,6420.7
604.920532227,6347.25
605.200073242,6415.175
605.479614258,6433.875
605.759094238,6474.425
606.038574219,6482.2
606.317932129,6414.525
606.597412109,6384.05
606.87677002,6406.075
607.15612793,6465.8
607.435546875,6466.775
607.714782715,6460.45
607.99407959,6423.05
608.273376465,6400.325
608.552612305,6434.675
608.831848145,6416.8
609.111083984,6421.075
609.390258789,6448.6
609.669433594,6392.85
609.948608398,6489.125
610.227722168,6450.525
610.506713867,6395.5
610.785888672,6397.8
611.064880371,6406.775
611.34387207,6414.25
611.622924805,6431.175
611.901916504,6412.775
612.180847168,6380.325
612.459777832,6372.3
612.738647461,6363.825
613.01751709,6350.425
613.296447754,6284.875
613.575317383,6250.225
613.854064941,6201.325
614.132873535,6081.1
614.411621094,6023.7
614.690368652,5989.475
614.969177246,5943.0
615.247802734,5822.65
615.526489258,5812.975
615.805175781,5683.0
616.08380127,5540.45
616.362365723,5457.575
616.640991211,5407.05
616.919555664,5349.275
617.198059082,5479.1
617.4765625,5769.75
617.755126953,5929.175
618.033569336,5975.3
618.311950684,5968.375
618.590454102,5962.325
618.868774414,5919.25
619.147155762,5932.1
619.425598145,5911.875
619.703857422,5944.15
619.982177734,5948.95
620.260498047,5931.975
620.538757324,5911.075
620.816955566,5885.45
621.095214844,5834.65
621.373413086,5841.5
621.651550293,5933.0
621.929748535,5940.25
622.207824707,5908.7
622.485900879,5941.2
622.764038086,5960.6
623.042053223,5982.825
623.320007324,6013.625
623.598083496,6014.75
623.876037598,5969.65
624.153991699,5998.25
624.432006836,6039.325
624.709838867,6061.9
624.987731934,6021.5
625.265563965,6016.625
625.543395996,6046.35
625.821228027,6105.2
626.098999023,6099.4
626.376831055,6158.0
626.654541016,6171.575
626.932250977,6229.4
627.209960938,6257.125
627.487670898,6268.975
627.765319824,6316.3
628.04296875,6311.7
628.320495605,6316.15
628.598083496,6306.85
628.875671387,6336.15
629.153259277,6390.725
629.430725098,6445.575
629.708251953,6459.7
629.985656738,6449.475
630.263122559,6519.275
630.540588379,6515.225
630.817932129,6570.95
631.095275879,6605.15
631.372680664,6628.15
631.649963379,6678.25
631.927246094,6722.9
632.204589844,6779.425
632.481811523,6829.25
632.759033203,6922.325
633.036254883,6953.4
633.313415527,7061.575
633.590576172,7101.25
633.867736816,7224.5
634.144836426,7291.825
634.421875,7343.425
634.698913574,7421.6
634.976013184,7474.75
635.252990723,7558.425
635.529968262,7583.325
635.807006836,7672.5
636.08392334,7645.25
636.360839844,7571.45
636.637756348,7444.375
636.914611816,7422.625
637.191467285,7370.925
637.468261719,7457.375
637.745056152,7428.15
638.021789551,7458.05
638.298583984,7478.525
638.575317383,7531.8
638.851989746,7541.725
639.12878418,7556.025
639.405395508,7522.325
639.682006836,7583.325
639.958618164,7585.8
640.235229492,7559.2
640.511779785,7622.875
640.788330078,7575.5
641.064880371,7575.925
641.341308594,7580.5
641.617797852,7556.425
641.894226074,7540.65
642.170654297,7578.025
642.44708252,7614.925
642.723388672,7582.525
642.999755859,7602.125
643.276123047,7575.275
643.552429199,7561.0
643.828674316,7551.525
644.104919434,7544.475
644.381164551,7547.3
644.657348633,7565.7
644.933532715,7510.775
645.209716797,7517.4
645.485839844,7527.225
645.761901855,7534.85
646.038024902,7531.375
646.314086914,7568.425
646.590087891,7504.6
646.866149902,7553.45
647.142150879,7490.025
647.41809082,7488.825
647.694030762,7487.725
647.969970703,7481.175
648.245788574,7508.125
648.521728516,7491.3
648.797546387,7463.575
649.073303223,7487.7
649.349182129,7457.2
649.624938965,7453.575
649.900634766,7469.75
650.176391602,7450.85
650.452087402,7446.25
650.727783203,7447.175
651.003479004,7464.9
651.279052734,7466.85
651.554626465,7453.725
651.83026123,7467.825
652.105773926,7485.425
652.381286621,7427.15
652.656860352,7463.05
652.932312012,7461.025
653.207763672,7460.9
653.483215332,7487.675
653.758605957,7469.575
654.033935547,7489.75
654.309326172,7496.3
654.584716797,7526.275
654.859985352,7513.6
655.135253906,7543.075
655.410583496,7572.6
655.685791016,8714.9
655.9609375,13475.1
656.236206055,13196.7
656.511291504,8815.575
656.786437988,7716.775
657.061645508,7623.65
657.336669922,7582.05
657.611694336,7630.2
657.886779785,7675.575
658.161804199,7690.675
658.436828613,7623.425
658.711791992,7644.475
658.986755371,7653.75
659.261657715,7658.7
659.536621094,7685.175
659.811401367,7727.9
660.086303711,7749.35
660.36114502,7719.075
660.635864258,7689.55
660.910644531,7777.95
661.185424805,7722.225
661.460205078,7793.425
661.734863281,7765.25
662.009521484,7778.725
662.284179688,7800.45
662.558776855,7836.575
662.833435059,7886.975
663.108032227,7866.4
663.382568359,7838.625
663.657043457,7914.275
663.93157959,7959.325
664.206054688,7910.775
664.48046875,8001.125
664.755004883,7990.45
665.02935791,8014.925
665.303710938,8008.675
665.578125,8052.3
665.852416992,8074.5
666.126708984,8069.9
666.401062012,8094.7
666.675292969,8145.85
666.949462891,8134.35
667.223754883,8156.1
667.497924805,8200.125
667.772094727,8226.85
668.046264648,8166.25
668.3203125,8232.925
668.594421387,8254.925
668.868469238,8278.4
669.14251709,8304.0
669.416503906,8306.75
669.690551758,8327.7
669.964477539,8336.975
670.23840332,8324.9
670.512329102,8361.1
670.786254883,8327.625
671.060058594,8383.1
671.333984375,8413.65
671.607788086,8456.0
671.881530762,8427.825
672.155334473,8480.925
672.429077148,8490.75
672.702758789,8521.9
672.97644043,8486.25
673.25012207,8478.6
673.523742676,8500.525
673.797302246,8491.1
674.070922852,8580.15
674.344482422,8599.8
674.618041992,8594.325
674.891601562,8581.2
675.165100098,8642.175
675.438476562,8627.525
675.711975098,8663.5
675.985412598,8656.675
676.258789062,8632.75
676.532165527,8664.8
676.805480957,8676.65
677.078796387,8709.65
677.352111816,8735.45
677.625366211,8702.925
677.898620605,8675.125
678.171875,8763.325
678.445007324,8756.85
678.718200684,8801.875
678.991394043,8787.075
679.264404297,8791.25
679.537536621,8832.125
679.81060791,8813.3
680.083679199,8838.05
680.356689453,8848.825
680.629699707,8854.775
680.902648926,8845.65
681.175598145,8909.125
681.448547363,8951.9
681.721435547,8905.6
681.99420166,8909.35
682.267150879,8871.725
682.539916992,8979.5
682.812744141,8957.225
683.085510254,8954.1
683.358215332,8973.5
683.63092041,8945.625
683.903625488,8944.275
684.176330566,8963.775
684.448913574,8943.925
684.721557617,8922.8
684.99420166,9049.25
685.266662598,9016.25
685.539245605,9053.8
685.811767578,9089.175
686.084289551,9097.9
686.356689453,9122.4
686.629150391,9126.725
686.901550293,9164.25
687.17401123,9147.2
687.446350098,9188.025
687.718688965,9217.85
687.990966797,9277.275
688.263305664,9276.925
688.535522461,9258.4
688.807739258,9230.125
689.079956055,9309.225
689.352172852,9340.95
689.624328613,9312.6
689.896484375,9371.975
690.168518066,9369.775
690.440612793,9404.75
690.71270752,9426.125
690.984741211,9420.925
691.256713867,9467.875
691.528747559,9434.8
691.800720215,9473.375
692.072631836,9515.3
692.344543457,9539.55
692.616394043,9558.75
692.888244629,9553.05
693.160095215,9587.15
693.431945801,9651.9
693.703674316,9627.8
693.975463867,9564.425
694.247131348,9636.45
694.518859863,9642.6
694.790588379,9698.15
695.062255859,9684.8
695.33380127,9663.35
695.60546875,9699.975
695.87701416,9708.2
696.148498535,9749.025
696.42010498,9770.6
696.691589355,9795.9
696.96307373,9814.55
697.234558105,9866.775
697.50592041,9842.525
697.777282715,9868.6
698.048706055,9903.475
698.320068359,9937.05
698.591308594,9873.375
698.862670898,9898.15
699.133972168,9962.55
699.405151367,9922.1
699.676391602,9968.6
699.947570801,9961.675
700.21875,9987.35
700.489868164,9976.45
700.761047363,9986.475
701.032104492,10055.15
701.303100586,9995.1
701.57421875,10110.875
701.845214844,10076.5
702.116149902,10110.525
702.387207031,10100.325
702.65814209,10136.25
702.928955078,10133.275
703.199951172,10134.675
703.47076416,10099.925
703.741577148,10120.2
704.012451172,10161.35
704.28314209,10176.025
704.553955078,10159.325
704.824707031,10232.525
705.095397949,10183.0
705.366027832,10237.975
705.63671875,10261.9
705.907348633,10257.525
706.17791748,10277.65
706.448486328,10305.45
706.719055176,10318.35
706.989562988,10351.35
707.260131836,10374.9
707.530517578,10373.9
707.800964355,10397.05
708.071411133,10347.175
708.341796875,10353.0
708.612182617,10338.65
708.882446289,10334.3
709.152893066,10373.3
709.423156738,10354.275
709.693359375,10325.725
709.963623047,10396.125
710.233825684,10373.35
710.503967285,10342.225
710.774169922,10373.475
711.044311523,10365.375
711.31439209,10374.9
711.584533691,10424.325
711.854553223,10410.375
712.124572754,10422.125
712.39465332,10398.45
712.664611816,10440.475
712.934509277,10491.35
713.204467773,10459.4
713.474365234,10496.95
713.74420166,10485.5
714.014099121,10504.925
714.283874512,10472.25
714.553710938,10510.8
714.823486328,10504.425
715.093200684,10479.25
715.362915039,10518.525
715.632629395,10511.075
715.902282715,10477.675
716.171875,10502.225
716.441589355,10499.75
716.711181641,10453.35
716.980712891,10501.125
717.250244141,10459.625
717.519775391,10512.25
717.78918457,10533.65
718.058654785,10593.925
718.328125,10585.025
718.597473145,10535.55
718.866882324,10553.925
719.136230469,10551.75
719.405578613,10598.875
719.674865723,10604.6
719.944152832,10612.175
720.213439941,10566.9
720.48260498,10576.85
720.75177002,10643.45
721.020996094,10610.05
721.290100098,10624.375
721.559204102,10581.65
721.828308105,10643.625
722.097351074,10615.25
722.366455078,10591.075
722.635437012,10579.475
722.904418945,10581.75
723.173400879,10624.075
723.442321777,10645.85
723.711181641,10598.075
723.980102539,10656.0
724.248962402,10655.875
724.51776123,10610.75
724.786560059,10644.9
725.055358887,10653.775
725.324035645,10575.025
725.592834473,10610.925
725.86151123,10642.175
726.130187988,10614.075
726.398803711,10585.0
726.667419434,10613.975
726.935974121,10608.95
727.204528809,10544.325
727.473083496,10564.4
727.741638184,10514.475
728.010070801,10479.775
728.278564453,10452.675
728.546936035,10475.8
728.815368652,10424.85
729.08380127,10352.15
729.352111816,10278.325
729.620361328,10193.125
729.88873291,10261.475
730.156982422,10354.025
730.425231934,10376.275
730.693481445,10376.25
730.961669922,10413.3
731.229797363,10481.825
731.49798584,10504.675
731.766113281,10592.05
732.034118652,10655.35
732.302246094,10708.475
732.570251465,10740.4
732.838256836,10786.225
733.106262207,10896.075
733.374145508,10937.625
733.642089844,10966.625
733.909973145,11010.45
734.177856445,11124.625
734.445678711,11211.025
734.713562012,11320.325
734.981323242,11344.775
735.249084473,11384.725
735.516845703,11598.225
735.784545898,11653.875
736.052185059,11696.75
736.319885254,11833.75
736.587524414,11856.225
736.855102539,11915.525
737.122619629,12087.95
737.390197754,12072.825
737.657714844,12207.55
737.925170898,12262.475
738.192749023,12403.9
738.460144043,12450.85
738.727539062,12520.625
738.994995117,12673.0
739.262329102,12778.325
739.529663086,12888.5
739.79699707,12955.675
740.06427002,13023.95
740.331481934,13090.2
740.598754883,13159.825
740.865905762,13198.25
741.133056641,13357.9
741.40032959,13377.7
741.667358398,13476.0
741.934448242,13530.025
742.201599121,13531.725
742.468566895,13731.05
742.735534668,13723.075
743.002563477,13773.7
743.26953125,13728.25
743.536437988,13833.425
743.803405762,13950.625
744.0703125,13877.525
744.337097168,14009.25
744.604003906,13888.4
744.870727539,14034.3
745.137512207,14055.775
745.40423584,14088.425
745.670959473,14046.325
745.93762207,14135.575
746.204284668,14135.6
746.470947266,14140.3
746.737548828,14145.8
747.004089355,14170.85
747.270751953,14177.775
747.53717041,14200.85
747.803710938,14126.875
748.070251465,14124.125
748.336608887,14131.3
748.603027344,14079.7
748.869445801,14085.175
749.135803223,14095.55
749.402099609,14129.7
749.668457031,14127.175
749.934753418,14051.675
750.20098877,14003.225
750.467224121,14068.475
750.733459473,14060.275
750.999572754,14045.575
751.26574707,13931.575
751.531860352,13978.725
751.797912598,13945.75
752.064025879,13834.925
752.330078125,13911.725
752.596069336,13820.625
752.862060547,13762.45
753.127990723,13782.575
753.393920898,13764.7
753.659912109,13740.675
753.925720215,13806.5
754.19152832,13725.8
754.457397461,13691.675
754.723144531,13639.1
754.988952637,13567.4
755.254699707,13623.95
755.520385742,13638.55
755.786071777,13631.275
756.051696777,13599.325
756.317382812,13562.4
756.582946777,13483.9
756.848510742,13540.5
757.114074707,13423.85
757.379577637,13418.45
757.645080566,13505.925
757.910583496,13443.1
758.175964355,13365.2
758.441345215,13347.575
758.706848145,13184.075
758.972106934,13169.05
759.237426758,13220.325
759.502807617,13234.975
759.768005371,13223.175
760.03326416,13172.75
760.298522949,13110.4
760.563659668,13123.1
760.828857422,13121.95
761.093994141,13087.975
761.359130859,13044.6
761.624206543,13000.025
761.889282227,12934.875
762.15423584,12949.55
762.419250488,12921.975
762.684265137,12881.525
762.949157715,12846.25
763.214050293,12807.0
763.479003906,12810.475
763.743835449,12766.8
764.008666992,12736.45
764.2734375,12733.9
764.538208008,12779.875
764.802978516,12803.45
765.067687988,12766.45
765.332397461,12785.4
765.597045898,12752.225
765.861694336,12681.825
766.126342773,12608.725
766.390930176,12600.425
766.655395508,12530.55
766.920043945,12508.925
767.184509277,12524.9
767.448974609,12533.425
767.713439941,12521.0
767.977783203,12444.7
768.2421875,12496.95
768.506591797,12412.2
768.770874023,12521.8
769.03515625,12465.475
769.299499512,12408.2
769.563720703,12429.85
769.827941895,12374.15
770.092163086,12330.375
770.356323242,12313.225
770.620483398,12352.2
770.88458252,12365.7
771.148681641,12377.325
771.412719727,12343.425
771.676757812,12354.025
771.940734863,12301.325
772.204711914,12268.85
772.468688965,12247.875
772.73260498,12240.0
772.996459961,12271.925
773.260314941,10936.525
773.524169922,1391.225
773.787963867,161.0
774.051696777,119.775
774.315551758,117.3
774.579223633,116.35
774.842895508,118.875
775.106567383,122.3
775.370239258,114.6
775.633789062,122.025
775.897399902,123.375
776.160949707,118.225
776.424499512,119.8
776.687988281,121.075
776.951477051,122.45
777.214904785,122.975
777.47833252,119.025
