191.299911499,101.15
191.603515625,104.775
191.907119751,96.0
192.210693359,103.925
192.514251709,99.475
192.817810059,104.85
193.121368408,102.1
193.42489624,106.425
193.728408813,98.5
194.031936646,97.95
194.33543396,92.825
194.638916016,111.075
194.94241333,97.4
195.245880127,98.15
195.549331665,96.75
195.852767944,100.025
196.156204224,184.75
196.459625244,181.45
196.763015747,180.95
197.066436768,188.1
197.369812012,180.275
197.673187256,185.125
197.9765625,177.375
198.279922485,181.325
198.583251953,179.25
198.886581421,185.125
199.18989563,188.65
199.493209839,184.9
199.79649353,174.975
200.09979248,189.8
200.403076172,182.4
200.706314087,184.15
201.009567261,182.55
201.312820435,185.675
201.616027832,174.3
201.919235229,170.275
202.222457886,177.325
202.525634766,183.825
202.828826904,173.55
203.132003784,173.85
203.435150146,173.625
203.738296509,172.9
204.041412354,173.325
204.344558716,176.375
204.647659302,179.375
204.950759888,182.0
205.253845215,177.925
205.556930542,172.25
205.859985352,175.925
206.163024902,175.7
206.466079712,176.35
206.769104004,185.4
207.072113037,180.9
207.375137329,176.925
207.678131104,180.8
207.981109619,181.525
208.284088135,177.25
208.587036133,180.925
208.889984131,180.35
209.19291687,186.875
209.495849609,183.275
209.798751831,185.775
210.101654053,183.65
210.404556274,186.9
210.707427979,185.725
211.010269165,192.75
211.31312561,190.025
211.615982056,188.425
211.918807983,192.35
212.221618652,192.025
212.524429321,184.925
212.827224731,195.125
213.130004883,194.75
213.432769775,197.075
213.735534668,194.0
214.038269043,197.175
214.341003418,194.25
214.643737793,199.925
214.946456909,201.525
215.249145508,207.975
215.551834106,203.425
215.854507446,204.225
216.157165527,203.75
216.45980835,208.975
216.762451172,211.875
217.065078735,214.125
217.36769104,208.35
217.670303345,216.25
217.972885132,218.325
218.275466919,224.5
218.578048706,219.2
218.880599976,233.2
219.183120728,234.65
219.485656738,243.875
219.788192749,266.325
220.090682983,292.2
220.393188477,319.375
220.695663452,366.825
220.998138428,414.525
221.300582886,477.475
221.603042603,531.5
221.905487061,602.575
222.207901001,688.3
222.510299683,778.0
222.812728882,886.875
223.115097046,992.45
223.41746521,1123.1
223.719848633,1236.875
224.022171021,1357.175
224.324508667,1482.825
224.626846313,1620.35
224.929168701,1753.95
225.231460571,1892.85
225.533737183,2023.825
225.836013794,2151.25
226.138290405,2272.675
226.440536499,2414.875
226.742767334,2525.85
227.044998169,2628.75
227.347213745,2774.3
227.649429321,2862.675
227.951629639,2930.1
228.253799438,3020.675
228.555953979,3100.2
228.858123779,3189.875
229.160263062,3229.45
229.462371826,3302.4
229.764511108,3362.65
230.066619873,3403.85
230.36869812,3471.35
230.670776367,3518.875
230.972854614,3567.625
231.274902344,3631.025
231.576950073,3681.525
231.878967285,3712.125
232.180999756,3754.725
232.48298645,3818.05
232.784988403,3862.825
233.086975098,3891.6
233.388946533,3911.5
233.69090271,3965.525
233.992858887,3992.225
234.294769287,3994.425
234.596694946,3994.5
234.898605347,4006.525
235.200500488,3992.775
235.502380371,3984.625
235.804244995,3952.225
236.106109619,3889.1
236.407958984,3892.125
236.709777832,3848.4
237.011581421,3809.05
237.313400269,3743.775
237.615203857,3684.275
237.916976929,3648.975
238.21875,3593.25
238.520507812,3510.7
238.822250366,3460.7
239.12399292,3361.225
239.425704956,3311.15
239.727401733,3226.475
240.02911377,3160.3
240.330780029,3051.8
240.632446289,3007.075
240.93409729,2919.425
241.23576355,2848.975
241.537384033,2778.2
241.839004517,2677.75
242.140594482,2600.075
242.442199707,2553.35
242.743774414,2462.775
243.045333862,2380.6
243.346923828,2293.575
243.648452759,2218.95
243.949966431,2137.9
244.251495361,2065.025
244.552993774,1995.675
244.854492188,1904.975
245.155975342,1823.475
245.457443237,1774.875
245.758880615,1686.525
246.060333252,1627.35
246.36177063,1543.925
246.66317749,1476.775
246.964569092,1397.6
247.265945435,1352.95
247.567337036,1287.025
247.86869812,1249.925
248.170059204,1196.275
248.471389771,1151.375
248.772705078,1102.75
249.074035645,1063.25
249.375335693,1026.025
249.676620483,1008.525
249.977890015,965.725
250.279159546,942.125
250.58039856,916.8
250.881637573,883.4
251.182876587,857.475
251.484069824,838.675
251.785263062,815.6
252.086456299,817.95
252.387619019,787.2
252.688781738,774.325
252.989929199,764.75
253.291061401,746.6
253.592178345,732.85
253.893280029,716.475
254.194366455,714.85
254.49546814,689.725
254.796524048,678.375
255.097579956,683.2
255.398620605,670.975
255.699645996,669.325
256.000640869,651.25
256.30166626,648.475
256.602661133,644.025
256.903656006,640.2
257.204589844,637.175
257.505523682,625.575
257.80645752,631.2
258.107391357,634.075
258.408294678,619.95
258.709228516,619.025
259.010070801,619.275
259.310943604,615.075
259.611846924,618.2
259.912658691,616.2
260.213500977,620.175
260.514343262,626.525
260.815124512,618.55
261.115936279,628.975
261.416717529,639.0
261.717468262,644.65
262.018218994,640.75
262.318969727,654.15
262.619689941,664.8
262.920410156,688.95
263.221130371,698.95
263.521789551,732.65
263.822479248,740.3
264.123138428,774.0
264.42376709,798.85
264.72442627,804.35
265.025054932,826.425
265.325622559,867.425
265.626251221,883.1
265.926818848,911.075
266.227386475,930.475
266.527954102,961.575
266.828460693,990.0
267.12902832,1003.375
267.429534912,1043.6
267.730010986,1066.35
268.030517578,1091.475
268.330993652,1127.85
268.631439209,1150.725
268.931915283,1200.2
269.232299805,1235.35
269.532745361,1293.8
269.8331604,1323.3
270.133544922,1362.85
270.433929443,1412.0
270.734313965,1445.3
271.034637451,1515.15
271.334991455,1556.7
271.635314941,1632.575
271.935638428,1692.225
272.235931396,1766.65
272.536254883,1842.2
272.836486816,1915.8
273.136749268,2003.075
273.437011719,2113.925
273.737213135,2236.45
274.037445068,2321.875
274.337677002,2428.0
274.6378479,2548.65
274.938049316,2669.5
275.238220215,2795.075
275.538360596,2940.375
275.838500977,3053.0
276.138641357,3213.475
276.438751221,3329.8
276.738830566,3463.6
277.03894043,3585.8
277.338989258,3773.0
277.639038086,3926.95
277.939056396,4042.75
278.239105225,4180.625
278.539093018,4327.775
278.839141846,4465.9
279.139129639,4616.875
279.439086914,4760.875
279.739044189,4897.675
280.039001465,5047.375
280.338928223,5165.4
280.63885498,5308.8
280.938781738,5458.925
281.238647461,5566.25
281.538513184,5683.075
281.838409424,5809.125
282.138244629,5921.925
282.438079834,6025.9
282.737945557,6141.35
283.037719727,6242.575
283.337524414,6357.9
283.637298584,6430.425
283.937072754,6540.95
284.236816406,6608.7
284.536560059,6705.4
284.836303711,6775.325
285.136016846,6897.925
285.43572998,6963.25
285.735412598,7013.25
286.035064697,7108.8
286.334747314,7187.175
286.634368896,7272.0
286.933990479,7254.225
287.233642578,7281.525
287.533203125,7329.45
287.832824707,7344.9
288.132385254,7257.375
288.431945801,7204.15
288.731506348,7130.325
289.031036377,6995.725
289.330566406,6922.525
289.630065918,6940.3
289.92956543,6950.55
290.229034424,7079.175
290.528503418,7284.575
290.827941895,7461.0
291.127380371,7633.225
291.42678833,7776.975
291.726226807,7931.125
292.025604248,8004.35
292.324981689,8046.175
292.624359131,8093.825
292.923736572,8109.075
293.223052979,8142.95
293.522369385,8160.075
293.821685791,8148.9
294.12097168,8175.55
294.420257568,8137.325
294.719543457,8134.15
295.018768311,8130.35
295.318023682,8073.425
295.617248535,8029.3
295.916442871,8003.725
296.215667725,7916.125
296.514862061,7809.025
296.813995361,7599.45
297.11315918,7376.075
297.412322998,7274.75
297.711425781,7251.95
298.010559082,7420.25
298.309631348,7647.975
298.608734131,7882.725
298.907806396,8076.05
299.206848145,8227.7
299.505889893,8296.425
299.804901123,8416.875
300.103912354,8495.7
300.402954102,8567.925
300.701904297,8635.45
301.00088501,8752.65
301.299835205,8816.65
301.5987854,8841.5
301.897735596,8940.35
302.196624756,8986.55
302.495513916,9069.875
302.794403076,9111.05
303.093292236,9180.375
303.392120361,9258.975
303.690979004,9319.9
303.989837646,9387.925
304.288604736,9407.3
304.587402344,9417.525
304.886199951,9499.975
305.184967041,9534.175
305.483734131,9589.15
305.782501221,9603.475
306.081176758,9635.45
306.37991333,9663.725
306.678619385,9665.95
306.977294922,9694.1
307.275970459,9700.725
307.574645996,9731.15
307.873260498,9721.875
308.171875,9739.4
308.470489502,9722.9
308.769104004,9635.1
309.067687988,9674.125
309.366241455,9668.85
309.664794922,9602.725
309.963348389,9620.6
310.261871338,9645.6
310.560394287,9624.3
310.858856201,9669.775
311.157348633,9698.375
311.455810547,9714.35
311.754272461,9736.625
312.052703857,9811.175
312.351135254,9861.3
312.649536133,9839.125
312.947937012,9835.225
313.246307373,9856.275
313.544647217,9843.1
313.843017578,9795.75
314.141387939,9767.1
314.439697266,9813.875
314.738006592,9716.525
315.036315918,9632.8
315.334564209,9583.075
315.6328125,9515.775
315.931091309,9451.6
316.229309082,9333.025
316.527526855,9197.925
316.825744629,9162.1
317.123901367,9032.175
317.422088623,9007.925
317.720245361,8991.825
318.0184021,9014.55
318.316497803,9033.0
318.614654541,9091.55
318.912750244,9185.35
319.21081543,9170.6
319.50894165,9229.6
319.806945801,9205.125
320.104980469,9232.975
320.403045654,9216.825
320.701049805,9179.025
320.999023438,9152.325
321.297027588,9117.675
321.595001221,9079.35
321.892913818,9054.25
322.190887451,8967.55
322.488830566,8916.4
322.786712646,8880.4
323.084625244,8762.45
323.382507324,8780.7
323.680358887,8672.9
323.978210449,8604.0
324.276062012,8538.775
324.573852539,8476.725
324.871643066,8414.375
325.169464111,8367.025
325.467224121,8276.8
325.764984131,8246.25
326.062744141,8139.15
326.360473633,8040.125
326.658203125,7998.575
326.955871582,7904.325
327.253570557,7846.05
327.551239014,7788.2
327.848907471,7706.7
328.146514893,7617.325
328.444152832,7557.075
328.741790771,7517.975
329.039367676,7457.0
329.336914062,7400.1
329.634521484,7323.8
329.932067871,7270.45
330.229553223,7158.9
330.527160645,7140.5
330.824615479,7078.525
331.12210083,6993.925
331.419586182,6873.475
331.717041016,6812.95
332.014465332,6697.675
332.311920166,6692.475
332.609313965,6625.675
332.906707764,6631.725
333.204101562,6600.325
333.501495361,6621.625
333.798828125,6678.025
334.096160889,6681.625
334.39352417,6745.125
334.690795898,6825.625
334.988098145,6855.225
335.285400391,6949.025
335.582641602,6925.425
335.879882812,6994.675
336.177124023,6985.825
336.474334717,7064.35
336.77154541,7062.2
337.068725586,7078.4
337.365905762,7099.425
337.66305542,7128.975
337.960205078,7141.675
338.257324219,7108.875
338.554443359,7144.65
338.8515625,7155.2
339.148590088,7161.475
339.445648193,7175.7
339.742736816,7135.5
340.039764404,7138.75
340.336761475,7079.65
340.63381958,7015.35
340.930755615,6973.2
341.227722168,6905.85
341.524688721,6803.3
341.821624756,6753.75
342.118560791,6792.2
342.415496826,6878.7
342.712402344,7015.8
343.009246826,7179.125
343.306121826,7308.875
343.602966309,7324.275
343.899810791,7458.175
344.196624756,7527.425
344.493438721,7558.075
344.79019165,7611.35
345.086975098,7667.975
345.383758545,7713.325
345.680480957,7664.95
345.977203369,7692.65
346.273956299,7733.1
346.570617676,7718.025
346.86730957,7751.45
347.163970947,7719.65
347.460601807,7760.0
347.757232666,7748.0
348.053894043,7722.35
348.350463867,7673.7
348.647064209,7659.3
348.943634033,7637.9
349.24017334,7627.05
349.536712646,7567.875
349.833251953,7575.475
350.129760742,7529.225
350.426208496,7500.45
350.722747803,7462.85
351.019195557,7440.5
351.315612793,7390.525
351.612060547,7367.7
351.908508301,7302.5
352.204864502,7233.5
352.501281738,7166.675
352.797637939,7098.875
353.093963623,6975.625
353.390319824,6926.4
353.686645508,6828.6
353.982940674,6736.725
354.27923584,6692.8
354.575531006,6634.1
354.871765137,6603.9
355.167999268,6569.25
355.464233398,6575.65
355.760437012,6586.9
356.056640625,6541.625
356.352813721,6569.975
356.648956299,6551.325
356.945129395,6564.675
357.241271973,6539.975
357.537384033,6557.775
357.833496094,6487.325
358.129577637,6445.0
358.425628662,6413.65
358.721679688,6377.375
359.017730713,6351.575
359.313720703,6260.075
359.609710693,6237.025
359.905761719,6152.825
360.201721191,6133.625
360.497650146,6040.4
360.793609619,6030.45
361.089538574,5914.85
361.385437012,5829.575
361.681365967,5781.5
361.977233887,5719.0
362.273071289,5630.8
362.568908691,5517.475
362.864746094,5367.825
363.160552979,5231.875
363.456359863,5062.5
363.752166748,4899.85
364.047912598,4809.0
364.343658447,4776.45
364.639434814,4777.825
364.935119629,4798.975
365.230834961,4857.2
365.526550293,4864.225
365.822174072,4875.875
366.117858887,4891.4
366.413482666,4908.65
366.709075928,4922.65
367.004730225,4814.975
367.300292969,4804.625
367.595855713,4836.825
367.891448975,4710.925
368.186981201,4619.3
368.482513428,4563.65
368.778015137,4533.525
369.073547363,4497.375
369.36895752,4479.975
369.664428711,4366.225
369.95993042,4255.675
370.255310059,4208.475
370.550720215,4167.425
370.846160889,4122.3
371.14151001,4065.375
371.436859131,4047.275
371.73223877,4008.35
372.027557373,3976.8
372.322875977,3892.05
372.618164062,3856.3
372.913482666,3810.725
373.208709717,3790.275
373.503967285,3728.525
373.799194336,3678.925
374.094421387,3661.175
374.389648438,3639.7
374.684844971,3614.575
374.979980469,3643.575
375.275146484,3649.45
375.570281982,3659.925
375.865386963,3653.375
376.160522461,3596.7
376.455596924,3592.35
376.750640869,3649.5
377.045715332,3675.2
377.340759277,3678.275
377.635772705,3731.1
377.93081665,3744.1
378.225769043,3815.6
378.520751953,3838.825
378.815734863,3798.575
379.110656738,3954.25
379.405548096,4093.675
379.700500488,3932.475
379.995391846,3734.575
380.290252686,3764.1
380.585083008,3862.05
380.879974365,3895.175
381.17477417,3793.0
381.469543457,3744.15
381.764404297,3717.35
382.059143066,3743.9
382.353912354,3798.4
382.648651123,3864.85
382.943389893,3854.725
383.238067627,3712.175
383.532775879,3699.2
383.827484131,3648.825
384.12210083,3634.3
384.416778564,3590.3
384.711425781,3495.175
385.006011963,3507.075
385.300628662,3493.775
385.595184326,3559.0
385.88973999,3637.45
386.184295654,3712.4
386.478820801,3766.675
386.77331543,3851.875
387.067840576,3936.175
387.362335205,3974.8
387.656768799,4061.0
387.951202393,4087.65
388.245635986,4120.225
388.540039062,4188.15
388.834472656,4253.65
389.128875732,4148.85
389.423187256,3963.425
389.717559814,3918.425
390.011871338,4006.5
390.306182861,4027.9
390.600463867,4042.025
390.894775391,4092.45
391.189025879,4127.0
391.48324585,4101.175
391.777526855,4133.775
392.071685791,4300.975
392.365875244,4404.425
392.660064697,4450.175
392.95425415,4724.075
393.248382568,4692.475
393.542510986,4310.425
393.836608887,4171.775
394.130706787,4169.675
394.424804688,4106.325
394.71887207,4218.725
395.012878418,4182.75
395.306915283,4095.7
395.600921631,4052.425
395.894927979,4027.725
396.188903809,4073.525
396.482879639,4065.45
396.776794434,4236.575
397.070739746,4217.6
397.364654541,4220.05
397.658538818,4565.35
397.952423096,4574.05
398.246307373,4540.875
398.540100098,4983.625
398.833953857,4878.7
399.127746582,4477.65
399.421508789,4481.85
399.715301514,4446.95
400.009063721,4377.4
400.30279541,4239.9
400.596496582,4174.5
400.890258789,4322.0
401.183929443,4372.95
401.47756958,4282.425
401.771240234,4112.675
402.064880371,4103.05
402.35848999,4169.675
402.652130127,4087.975
402.945678711,4162.875
403.239257812,4102.8
403.532775879,4056.225
403.82635498,4104.9
404.119842529,4027.625
404.413360596,4019.2
404.706848145,4075.325
405.000274658,4016.525
405.293762207,4095.8
405.587188721,4138.175
405.880584717,4019.225
406.17401123,3864.3
406.467407227,3693.9
406.760742188,3691.1
407.054107666,3742.7
407.347442627,3688.15
407.640716553,3677.8
407.934051514,3727.275
408.227325439,3805.125
408.520568848,3965.35
408.813842773,4063.2
409.107086182,3879.75
409.400238037,3873.375
409.693450928,3802.075
409.986633301,3913.5
410.279754639,3840.925
410.572875977,3593.775
410.86605835,3534.375
411.159118652,3539.425
411.452209473,3559.5
411.745330811,3442.5
412.038360596,3387.25
412.331390381,3426.35
412.624420166,3470.1
412.917388916,3396.575
413.210388184,3240.175
413.503387451,3205.75
413.796295166,3130.45
414.089233398,2985.7
414.382141113,2928.725
414.675048828,2907.425
414.967926025,2941.75
415.260803223,2901.675
415.55368042,2921.825
415.846466064,2900.625
416.139282227,2965.175
416.432098389,3083.75
416.724853516,3075.6
417.017608643,3038.8
417.31036377,3049.825
417.603088379,3168.55
417.895782471,3141.975
418.188476562,3110.775
418.481140137,3192.625
418.773803711,3243.7
419.066436768,3225.4
419.359039307,3299.575
419.651641846,3292.225
419.944244385,3299.7
420.236816406,3267.825
420.529327393,3467.825
420.821899414,3538.025
421.114379883,3482.725
421.406860352,3728.85
421.699371338,3924.4
421.991821289,3900.25
422.284240723,3721.075
422.576721191,3580.95
422.869110107,3481.725
423.161468506,3450.625
423.453857422,3477.375
423.74621582,3382.225
424.038543701,3258.65
424.330871582,3224.775
424.623168945,3165.9
424.915435791,3306.325
425.207702637,3273.475
425.499969482,3233.675
425.792205811,3165.75
426.084411621,2958.325
426.376617432,3029.65
426.668762207,3101.3
426.9609375,2979.15
427.253082275,3103.175
427.545196533,3504.9
427.837310791,3221.175
428.129425049,2967.725
428.421447754,3173.975
428.713531494,3179.875
429.005554199,3183.5
429.297576904,3202.075
429.589599609,3594.5
429.881561279,3910.475
430.173522949,3708.0
430.465484619,3656.825
430.757415771,3727.3
431.049316406,3513.625
431.341186523,3289.125
431.633117676,3216.1
431.924957275,2928.925
432.21673584,2816.625
432.508636475,2954.75
432.800415039,2988.675
433.092163086,2899.75
433.383972168,2863.125
433.675689697,3552.525
433.967437744,4029.6
434.259155273,3119.175
434.550872803,2808.7
434.842498779,2866.425
435.134185791,2977.1
435.425842285,3027.475
435.717437744,2919.15
436.009063721,2741.975
436.30065918,2885.325
436.592224121,3236.525
436.883758545,3049.625
437.175323486,2790.975
437.466827393,2767.025
437.758331299,2790.65
438.049804688,2809.9
438.341247559,2885.05
438.63269043,2954.35
438.924163818,2954.35
439.215515137,2900.1
439.50692749,2822.125
439.798309326,2817.125
440.089660645,2828.85
440.380981445,2742.55
440.672332764,2742.8
440.963623047,2999.775
441.254882812,3455.575
441.546173096,3637.175
441.837402344,3381.825
442.128631592,3216.825
442.41986084,3200.675
442.711029053,3055.65
443.002197266,3142.725
443.293365479,3310.0
443.584503174,3462.45
443.875610352,3453.4
444.166717529,3167.225
444.457794189,3221.875
444.748840332,3217.075
445.039916992,3168.65
445.330932617,3260.5
445.621948242,3108.55
445.912963867,2911.125
446.203918457,3139.025
446.494812012,3363.75
446.785827637,3167.775
447.076721191,2997.175
447.367584229,2980.375
447.658447266,2951.125
447.949371338,3019.175
448.24017334,2882.25
448.530975342,2815.5
448.821838379,2991.6
449.112579346,3073.775
449.40335083,2996.3
449.694152832,3015.775
449.984863281,3045.6
450.27557373,2968.675
450.56628418,3020.225
450.856933594,3045.375
451.147583008,2899.875
451.438262939,2783.175
451.728881836,2991.575
452.019470215,3087.525
452.310089111,2876.925
452.600646973,2911.025
452.891174316,2961.3
453.181732178,2791.75
453.472229004,2662.4
453.762695312,2768.375
454.053222656,2809.6
454.343658447,2653.3
454.634063721,2615.275
454.924530029,2786.275
455.214935303,2933.175
455.505279541,2997.125
455.795715332,2863.95
456.086029053,2645.175
456.376312256,2646.875
456.666687012,2681.725
456.956939697,2778.3
457.247192383,2782.975
457.537445068,2859.65
457.827728271,3032.05
458.117919922,2983.7
458.408081055,2901.25
458.698303223,3073.1
458.988433838,3022.15
459.278564453,2844.675
459.568725586,3118.275
459.858825684,3234.575
460.148864746,2913.075
460.438995361,2879.25
460.729034424,2944.5
461.019042969,2938.95
461.309082031,3146.625
461.599060059,3021.325
461.889007568,2577.95
462.179016113,2383.175
462.468933105,2626.1
462.75881958,2750.6
463.048736572,2485.825
463.338592529,2757.325
463.628448486,3104.35
463.918365479,2816.675
464.2081604,2991.4
464.497924805,2954.025
464.787780762,3063.4
465.077514648,3390.25
465.367218018,2984.65
465.657012939,3199.375
465.946685791,3624.875
466.236358643,3223.425
466.526092529,2677.8
466.815734863,2686.375
467.105316162,2617.775
467.394927979,2629.575
467.684570312,2496.875
467.974121094,2599.875
468.263671875,2704.8
468.553222656,2476.2
468.842773438,2378.125
469.132232666,2267.2
469.42175293,2297.2
469.711212158,2260.475
470.000640869,2142.8
470.290100098,2210.75
470.579498291,2238.175
470.868835449,2247.125
471.158294678,2187.275
471.447601318,2184.3
471.736907959,2246.675
472.026275635,2332.025
472.315551758,2312.525
472.604797363,2313.925
472.894104004,2435.425
473.183319092,2560.0
473.47253418,2550.9
473.761779785,2548.175
474.05090332,2464.0
474.340087891,2418.25
474.629241943,2343.375
474.918365479,2529.725
475.207427979,2807.45
475.496551514,2825.7
475.785614014,2561.4
476.074645996,2355.85
476.363708496,2461.5
476.652679443,2596.2
476.941650391,2413.15
477.230682373,2249.975
477.519622803,2268.375
477.808502197,2424.525
478.097412109,2699.6
478.386352539,2650.85
478.675201416,2377.875
478.964050293,2261.8
479.25289917,2472.1
479.541717529,2530.575
479.830474854,2355.475
480.11932373,2712.75
480.408050537,2906.7
480.696777344,2518.1
480.985534668,2375.65
481.274200439,2473.625
481.562866211,2739.35
481.851593018,2758.425
482.140197754,2702.275
482.428833008,2544.35
482.717468262,2326.7
483.006011963,2361.1
483.294586182,2491.05
483.5831604,2528.425
483.871673584,2392.275
484.16015625,2549.075
484.448699951,2792.525
484.7371521,2843.275
485.02557373,2840.65
485.314025879,2561.55
485.602416992,3974.1
485.890777588,14054.1
486.179199219,12550.425
486.467559814,3375.15
486.755859375,2457.325
487.044219971,2876.225
487.332519531,3066.55
487.620758057,2630.175
487.908966064,2368.5
488.197265625,2135.125
488.485473633,2037.7
488.773651123,2172.65
489.061859131,2177.625
489.350006104,2115.825
489.638122559,2057.2
489.926300049,2082.525
490.214355469,2029.325
490.502441406,1973.875
490.790527344,1904.85
491.078552246,2125.3
491.366546631,2105.725
491.654602051,1862.375
491.942565918,1945.975
492.230499268,2000.8
492.518493652,1957.475
492.806396484,1992.6
493.094268799,1894.825
493.382202148,1944.3
493.670074463,2074.95
493.957885742,1900.0
494.245727539,1902.525
494.533508301,2075.725
494.821289062,1962.825
495.109100342,1787.75
495.396850586,1742.7
495.684539795,1687.475
495.972290039,1929.3
496.25994873,2307.4
496.547607422,2311.3
496.835296631,2118.425
497.122894287,1769.675
497.410522461,1695.425
497.6980896,1698.7
497.985687256,1658.075
498.273223877,1758.675
498.560760498,1837.725
498.848266602,1880.0
499.135772705,1856.375
499.423217773,1887.825
499.710693359,2007.575
499.998138428,1925.15
500.285522461,1768.025
500.572937012,1676.325
500.860290527,1741.575
501.147644043,1845.425
501.434997559,2103.025
501.722290039,1955.875
502.00958252,1695.9
502.296875,1981.0
502.584106445,1965.95
502.871337891,1760.875
503.158599854,1870.975
503.445770264,1956.775
503.732910156,1936.925
504.020141602,1718.225
504.307220459,1693.7
504.594329834,1742.7
504.881469727,1666.375
505.168518066,1744.475
505.455535889,1822.7
505.742614746,1698.85
506.029632568,1608.775
506.316589355,1830.525
506.603637695,1912.5
506.890563965,1704.15
507.177459717,1531.275
507.464385986,1426.45
507.751312256,1678.85
508.038146973,1770.75
508.325012207,1624.725
508.611877441,1695.375
508.898681641,1701.125
509.185424805,1527.375
509.472259521,1480.475
509.759002686,1573.625
510.045715332,1603.85
510.332458496,1562.55
510.619140625,1613.425
510.905761719,1514.475
511.192504883,1509.45
511.479095459,1563.375
511.765686035,1506.9
512.052307129,1415.325
512.338928223,1354.7
512.625427246,1416.575
512.91204834,1487.05
513.198486328,1462.625
513.484985352,1423.95
513.77142334,1344.45
514.057922363,1401.1
514.344299316,1390.875
514.63079834,1347.575
514.917175293,1334.325
515.203552246,1233.375
515.489868164,1194.35
515.776245117,1333.25
516.0625,1385.75
516.348815918,1277.575
516.635070801,1321.375
516.921325684,1384.55
517.207580566,1306.125
517.493774414,1203.6
517.779968262,1224.65
518.066101074,1252.575
518.352294922,1203.125
518.638366699,1215.125
518.924499512,1313.125
519.210632324,1398.225
519.496643066,1342.575
519.782714844,1243.025
520.068786621,1200.4
520.354736328,1154.525
520.640686035,1101.875
520.926757812,1161.875
521.212646484,1249.575
521.498535156,1252.25
521.784484863,1196.925
522.0703125,1118.825
522.356262207,1128.025
522.642089844,1224.925
522.927856445,1213.325
523.213684082,1204.8
523.499511719,1196.1
523.78527832,1236.275
524.070983887,1298.95
524.356750488,1279.9
524.64239502,1235.225
524.928039551,1230.475
525.213806152,1239.65
525.499389648,1228.4
525.784973145,1254.1
526.070617676,1320.2
526.356140137,1265.375
526.641723633,1282.45
526.927307129,1352.35
527.212768555,1360.825
527.498291016,1329.15
527.783752441,1325.425
528.069213867,1313.3
528.354675293,1339.3
528.640014648,1519.025
528.925476074,1597.15
529.21081543,1509.25
529.496154785,1487.125
529.781555176,1452.575
530.066833496,1471.05
530.352050781,1489.95
530.637390137,1468.8
530.922607422,1467.6
531.207824707,1477.575
531.493041992,1464.5
531.778198242,1521.625
532.063354492,1503.025
532.348571777,1441.75
532.633666992,1476.075
532.918762207,1554.65
533.203857422,1645.35
533.488891602,1680.65
533.773925781,1613.7
534.059020996,1587.675
534.343933105,1626.275
534.628967285,1593.55
534.91394043,1606.6
535.198852539,1631.45
535.483703613,1602.75
535.768676758,1530.75
536.053527832,1532.725
536.338317871,1489.35
536.62322998,1420.875
536.90802002,1393.425
537.192810059,1426.05
537.477539062,1506.575
537.762329102,1548.1
538.047058105,1603.125
538.331726074,1633.15
538.616455078,1621.9
538.901123047,1591.2
539.18572998,1647.925
539.470397949,1645.4
539.755004883,1626.325
540.039550781,1599.1
540.32409668,1541.425
540.608703613,1586.175
540.893188477,1702.2
541.17767334,1718.825
541.462158203,1720.725
541.746643066,1664.55
542.031066895,1710.95
542.315429688,1758.325
542.59979248,1750.4
542.884216309,1732.425
543.168579102,1728.1
543.452941895,1728.45
543.737243652,1782.15
544.021484375,1835.525
544.305725098,1836.925
544.590026855,1809.675
544.874267578,1824.65
545.158447266,1912.725
545.442626953,1810.275
545.726806641,1681.85
546.010925293,1719.375
546.29510498,1755.725
546.579162598,1754.825
546.863220215,1787.8
547.147277832,1872.0
547.431335449,1960.45
547.715332031,2032.55
547.999328613,2154.3
548.283325195,2159.275
548.567260742,1999.35
548.851135254,1972.45
549.135070801,1935.375
549.419006348,1821.775
549.702819824,1931.65
549.986755371,2023.925
550.270507812,1969.075
550.554321289,2034.975
550.83807373,2051.525
551.121826172,1994.375
551.405517578,2013.7
551.689331055,2135.95
551.973022461,2401.85
552.256652832,2466.95
552.540344238,2354.5
552.823974609,2331.825
553.107543945,2324.225
553.391174316,2390.775
553.674743652,2449.975
553.958251953,2445.65
554.241821289,2456.6
554.525268555,2410.725
554.808776855,2393.45
555.092285156,2597.6
555.375671387,2693.6
555.659057617,2689.025
555.942504883,2720.2
556.225891113,2762.75
556.509216309,2723.2
556.792541504,2619.775
557.075866699,2705.95
557.359130859,2739.35
557.64239502,2755.025
557.92565918,2831.925
558.208862305,2796.775
558.49206543,2732.15
558.77532959,2747.0
559.058410645,2796.825
559.341552734,2799.825
559.624694824,2857.225
559.907775879,2940.35
560.190856934,3073.275
560.473937988,3056.625
560.756896973,3110.55
561.039978027,3154.85
561.322937012,3100.1
561.605895996,3080.775
561.88885498,3044.225
562.171813965,3054.9
562.454650879,3039.1
562.737548828,3075.575
563.020446777,3166.175
563.303283691,3175.4
563.58605957,3199.1
563.868896484,3238.85
564.151672363,3289.675
564.434387207,3318.575
564.717163086,3291.525
564.99987793,3338.675
565.282531738,3421.55
565.565185547,3345.325
565.847839355,3347.825
566.130432129,3479.275
566.413085938,3460.45
566.695678711,3464.45
566.978149414,3583.4
567.260681152,3749.425
567.543273926,3838.175
567.825744629,3725.175
568.108154297,3777.325
568.390686035,3914.15
568.673095703,4058.875
568.955505371,4098.5
569.237854004,4145.375
569.520202637,4429.65
569.802490234,4669.225
570.084838867,4682.075
570.367126465,4469.325
570.649414062,4499.175
570.93170166,4870.075
571.213928223,4976.4
571.496154785,4714.675
571.778381348,4959.0
572.06048584,5259.7
572.342590332,4727.475
572.624755859,4334.775
572.906860352,4415.775
573.188903809,5193.725
573.470947266,5459.625
573.752990723,5167.125
574.03503418,5312.075
574.317016602,5728.2
574.598937988,5477.775
574.88092041,5361.3
575.162841797,5580.325
575.444763184,5150.375
575.726623535,4842.325
576.008483887,4891.625
576.290344238,5340.75
576.572143555,5560.025
576.853881836,5631.1
577.135681152,5528.8
577.417419434,5600.925
577.699157715,6575.95
577.980895996,6759.525
578.262573242,6027.4
578.544128418,5483.55
578.825866699,5422.225
579.107421875,5072.825
579.388977051,5274.0
579.670593262,5701.35
579.952148438,5523.8
580.233642578,5623.75
580.515197754,5765.625
580.796691895,5420.05
581.078125,5619.525
581.359619141,7299.925
581.640991211,7426.0
581.922363281,6403.875
582.203796387,6447.7
582.485107422,6049.675
582.766418457,5579.1
583.047790527,5433.075
583.329040527,5297.0
583.610290527,5157.85
583.891540527,5291.9
584.172790527,5624.725
584.453918457,5650.275
584.735107422,5716.55
585.016235352,6206.95
585.297363281,6208.075
585.578552246,5960.45
585.859619141,5895.875
586.140625,5622.725
586.421630859,5459.25
586.702697754,5558.425
586.983642578,5779.15
587.264648438,5969.625
587.545654297,5895.55
587.826477051,5851.2
588.107421875,5627.3
588.388305664,5665.975
588.669189453,5754.325
588.950012207,5598.025
589.230834961,5489.225
589.511657715,5578.225
589.792358398,5696.05
590.073120117,5706.975
590.353881836,5673.375
590.63458252,5688.075
590.915283203,5648.55
591.195922852,5633.625
591.4765625,5679.95
591.757202148,5705.9
592.037780762,5723.775
592.31829834,5717.25
592.598937988,5949.3
592.879394531,6121.15
593.159912109,6036.425
593.440429688,5975.875
593.720825195,5941.875
594.001281738,5927.55
594.281677246,5841.825
594.562072754,5865.325
594.842407227,5951.575
595.122802734,6009.225
595.403137207,5962.5
595.683410645,5944.45
595.963623047,5927.475
596.243896484,5885.05
596.524169922,5871.1
596.804382324,5876.775
597.084533691,5906.125
597.364746094,5965.0
597.644836426,5983.725
597.924987793,5948.35
598.205078125,5926.35
598.485107422,5957.65
598.765197754,6084.85
599.045227051,6145.425
599.325195312,6031.375
599.605224609,5982.125
599.885192871,6029.875
600.165100098,6081.025
600.445007324,6042.65
600.724914551,6030.1
601.004760742,6038.925
601.284667969,6070.0
601.56451416,6027.825
601.844238281,6060.175
602.124084473,6030.65
602.403808594,6036.85
602.683532715,6067.05
602.963256836,6060.3
603.242919922,6122.675
603.522583008,6151.55
603.802246094,6108.65
604.081848145,6095.925
604.36138916,6057.9
604.641052246,6095.775
604.920532227,6051.95
605.200073242,6102.475
605.479614258,6112.575
605.759094238,6146.925
606.038574219,6123.6
606.317932129,6085.5
606.597412109,6092.275
606.87677002,6087.775
607.15612793,6117.5
607.435546875,6136.2
607.714782715,6144.875
607.99407959,6100.55
608.273376465,6091.45
608.552612305,6087.775
608.831848145,6122.775
609.111083984,6125.7
609.390258789,6102.275
609.669433594,6102.05
609.948608398,6177.65
610.227722168,6146.3
610.506713867,6066.25
610.785888672,6096.875
611.064880371,6099.675
611.34387207,6106.425
611.622924805,6115.8
611.901916504,6087.925
612.180847168,6066.275
612.459777832,6024.875
612.738647461,6048.3
613.01751709,6025.525
613.296447754,5957.85
613.575317383,5942.025
613.854064941,5879.35
614.132873535,5787.0
614.411621094,5724.7
614.690368652,5683.65
614.969177246,5616.475
615.247802734,5524.55
615.526489258,5503.05
615.805175781,5375.825
616.08380127,5266.55
616.362365723,5169.775
616.640991211,5130.55
616.919555664,5069.925
617.198059082,5200.225
617.4765625,5496.775
617.755126953,5636.225
618.033569336,5687.85
618.311950684,5690.8
618.590454102,5659.275
618.868774414,5635.975
619.147155762,5637.55
619.425598145,5627.775
619.703857422,5632.675
619.982177734,5656.225
620.260498047,5631.2
620.538757324,5640.725
620.816955566,5600.4
621.095214844,5539.925
621.373413086,5547.25
621.651550293,5631.2
621.929748535,5668.95
622.207824707,5632.0
622.485900879,5638.625
622.764038086,5659.875
623.042053223,5694.125
623.320007324,5720.3
623.598083496,5730.925
623.876037598,5699.75
624.153991699,5719.225
624.432006836,5743.925
624.709838867,5746.15
624.987731934,5728.925
625.265563965,5716.0
625.543395996,5728.7
625.821228027,5806.7
626.098999023,5781.375
626.376831055,5842.525
626.654541016,5861.85
626.932250977,5906.675
627.209960938,5939.975
627.487670898,5984.625
627.765319824,5993.9
628.04296875,6011.975
628.320495605,5993.75
628.598083496,6000.275
628.875671387,6032.175
629.153259277,6077.775
629.430725098,6143.475
629.708251953,6103.15
629.985656738,6152.175
630.263122559,6204.375
630.540588379,6207.85
630.817932129,6252.05
631.095275879,6281.3
631.372680664,6316.125
631.649963379,6344.85
631.927246094,6400.675
632.204589844,6438.625
632.481811523,6512.825
632.759033203,6610.3
633.036254883,6624.05
633.313415527,6701.75
633.590576172,6764.275
633.867736816,6882.625
634.144836426,6955.65
634.421875,7010.975
634.698913574,7065.525
634.976013184,7117.3
635.252990723,7180.175
635.529968262,7210.5
635.807006836,7307.675
636.08392334,7292.5
636.360839844,7174.8
636.637756348,7081.65
636.914611816,7050.775
637.191467285,7035.675
637.468261719,7101.775
637.745056152,7073.35
638.021789551,7097.025
638.298583984,7095.95
638.575317383,7163.325
638.851989746,7159.975
639.12878418,7174.525
639.405395508,7181.125
639.682006836,7194.725
639.958618164,7228.975
640.235229492,7187.9
640.511779785,7235.95
640.788330078,7202.3
641.064880371,7201.5
641.341308594,7196.65
641.617797852,7195.425
641.894226074,7205.175
642.170654297,7224.375
642.44708252,7230.35
642.723388672,7205.725
642.999755859,7205.675
643.276123047,7216.625
643.552429199,7175.825
643.828674316,7195.175
644.104919434,7181.8
644.381164551,7177.825
644.657348633,7183.125
644.933532715,7155.7
645.209716797,7189.675
645.485839844,7158.15
645.761901855,7175.65
646.038024902,7144.55
646.314086914,7196.275
646.590087891,7149.475
646.866149902,7212.825
647.142150879,7141.0
647.41809082,7136.9
647.694030762,7149.175
647.969970703,7127.825
648.245788574,7147.675
648.521728516,7149.625
648.797546387,7125.95
649.073303223,7160.65
649.349182129,7128.575
649.624938965,7103.4
649.900634766,7133.85
650.176391602,7134.375
650.452087402,7115.05
650.727783203,7123.85
651.003479004,7130.7
651.279052734,7109.3
651.554626465,7096.075
651.83026123,7085.8
652.105773926,7146.675
652.381286621,7084.975
652.656860352,7104.525
652.932312012,7109.275
653.207763672,7126.925
653.483215332,7132.925
653.758605957,7126.45
654.033935547,7164.575
654.309326172,7129.825
654.584716797,7156.15
654.859985352,7170.125
655.135253906,7191.325
655.410583496,7214.75
655.685791016,8331.25
655.9609375,12865.4
656.236206055,12620.7
656.511291504,8403.7
656.786437988,7367.05
657.061645508,7249.325
657.336669922,7243.75
657.611694336,7269.325
657.886779785,7303.95
658.161804199,7330.525
658.436828613,7280.9
658.711791992,7316.075
658.986755371,7316.05
659.261657715,7321.25
659.536621094,7338.25
659.811401367,7357.325
660.086303711,7370.65
660.36114502,7377.35
660.635864258,7382.05
660.910644531,7399.35
661.185424805,7392.0
661.460205078,7407.45
661.734863281,7418.025
662.009521484,7430.225
662.284179688,7415.85
662.558776855,7464.15
662.833435059,7513.5
663.108032227,7501.925
663.382568359,7498.2
663.657043457,7550.875
663.93157959,7582.325
664.206054688,7546.125
664.48046875,7628.175
664.755004883,7624.975
665.02935791,7656.225
665.303710938,7687.5
665.578125,7706.425
665.852416992,7664.425
666.126708984,7697.6
666.401062012,7717.8
666.675292969,7753.825
666.949462891,7800.2
667.223754883,7787.4
667.497924805,7822.7
667.772094727,7836.075
668.046264648,7818.375
668.3203125,7896.75
668.594421387,7874.975
668.868469238,7882.575
669.14251709,7882.675
669.416503906,7929.35
669.690551758,7907.325
669.964477539,7977.75
670.23840332,7961.625
670.512329102,7948.65
670.786254883,7927.3
671.060058594,8014.65
671.333984375,8024.975
671.607788086,8048.45
671.881530762,8021.05
672.155334473,8082.35
672.429077148,8110.625
672.702758789,8135.45
672.97644043,8100.75
673.25012207,8081.55
673.523742676,8106.475
673.797302246,8119.275
674.070922852,8189.575
674.344482422,8202.45
674.618041992,8210.5
674.891601562,8197.35
675.165100098,8246.275
675.438476562,8216.475
675.711975098,8260.3
675.985412598,8237.775
676.258789062,8234.325
676.532165527,8292.025
676.805480957,8265.4
677.078796387,8314.175
677.352111816,8329.525
677.625366211,8320.0
677.898620605,8295.5
678.171875,8348.075
678.445007324,8353.175
678.718200684,8379.4
678.991394043,8382.95
679.264404297,8395.225
679.537536621,8431.025
679.81060791,8433.675
680.083679199,8429.025
680.356689453,8450.775
680.629699707,8463.425
680.902648926,8462.425
681.175598145,8554.625
681.448547363,8577.175
681.721435547,8496.85
681.99420166,8552.85
682.267150879,8530.6
682.539916992,8559.125
682.812744141,8570.275
683.085510254,8530.9
683.358215332,8552.15
683.63092041,8542.95
683.903625488,8571.025
684.176330566,8556.85
684.448913574,8542.275
684.721557617,8542.25
684.99420166,8627.425
685.266662598,8621.05
685.539245605,8622.175
685.811767578,8668.725
686.084289551,8689.0
686.356689453,8721.2
686.629150391,8744.3
686.901550293,8774.35
687.17401123,8770.65
687.446350098,8811.6
687.718688965,8806.375
687.990966797,8859.925
688.263305664,8857.825
688.535522461,8860.475
688.807739258,8858.575
689.079956055,8905.4
689.352172852,8931.475
689.624328613,8929.625
689.896484375,8934.875
690.168518066,8939.4
690.440612793,8994.375
690.71270752,9016.475
690.984741211,9020.025
691.256713867,9059.925
691.528747559,9043.975
691.800720215,9076.1
692.072631836,9102.6
692.344543457,9121.775
692.616394043,9126.925
692.888244629,9143.75
693.160095215,9189.7
693.431945801,9224.45
693.703674316,9190.125
693.975463867,9162.825
694.247131348,9223.875
694.518859863,9193.7
694.790588379,9263.0
695.062255859,9264.075
695.33380127,9253.4
695.60546875,9237.45
695.87701416,9259.725
696.148498535,9317.875
696.42010498,9366.05
696.691589355,9390.0
696.96307373,9410.775
697.234558105,9436.7
697.50592041,9439.05
697.777282715,9444.475
698.048706055,9459.825
698.320068359,9495.0
698.591308594,9478.225
698.862670898,9463.5
699.133972168,9542.175
699.405151367,9481.375
699.676391602,9542.225
699.947570801,9507.075
700.21875,9533.675
700.489868164,9566.025
700.761047363,9553.875
701.032104492,9619.15
701.303100586,9587.6
701.57421875,9662.15
701.845214844,9648.5
702.116149902,9683.025
702.387207031,9633.6
702.65814209,9677.475
702.928955078,9729.15
703.199951172,9702.45
703.47076416,9671.9
703.741577148,9684.45
704.012451172,9715.825
704.28314209,9713.15
704.553955078,9706.8
704.824707031,9767.875
705.095397949,9796.375
705.366027832,9803.45
705.63671875,9817.275
705.907348633,9767.75
706.17791748,9795.7
706.448486328,9833.95
706.719055176,9880.7
706.989562988,9893.125
707.260131836,9915.575
707.530517578,9940.475
707.800964355,9941.4
708.071411133,9910.975
708.341796875,9920.65
708.612182617,9881.775
708.882446289,9900.525
709.152893066,9915.05
709.423156738,9925.925
709.693359375,9939.25
709.963623047,9936.525
710.233825684,9948.05
710.503967285,9928.8
710.774169922,9956.35
711.044311523,9926.425
711.31439209,9929.3
711.584533691,9970.0
711.854553223,9959.175
712.124572754,9989.45
712.39465332,9951.625
712.664611816,9989.2
712.934509277,10038.125
713.204467773,10012.825
713.474365234,10057.525
713.74420166,10025.775
714.014099121,10041.0
714.283874512,10046.575
714.553710938,10087.275
714.823486328,10089.2
715.093200684,10051.2
715.362915039,10056.9
715.632629395,10062.575
715.902282715,10044.875
716.171875,10019.425
716.441589355,10033.7
716.711181641,10008.625
716.980712891,10039.375
717.250244141,10057.6
717.519775391,10073.55
717.78918457,10088.1
718.058654785,10151.45
718.328125,10161.975
718.597473145,10092.575
718.866882324,10115.025
719.136230469,10138.4
719.405578613,10154.575
719.674865723,10178.0
719.944152832,10146.475
720.213439941,10100.3
720.48260498,10190.75
720.75177002,10213.95
721.020996094,10180.075
721.290100098,10197.625
721.559204102,10167.425
721.828308105,10186.725
722.097351074,10161.225
722.366455078,10125.925
722.635437012,10135.3
722.904418945,10098.75
723.173400879,10199.2
723.442321777,10207.875
723.711181641,10146.225
723.980102539,10176.75
724.248962402,10193.075
724.51776123,10191.475
724.786560059,10204.175
725.055358887,10204.225
725.324035645,10175.6
725.592834473,10188.525
725.86151123,10164.175
726.130187988,10180.675
726.398803711,10151.1
726.667419434,10178.225
726.935974121,10191.925
727.204528809,10127.225
727.473083496,10124.475
727.741638184,10117.55
728.010070801,10121.35
728.278564453,10096.15
728.546936035,10104.725
728.815368652,10029.175
729.08380127,9964.725
729.352111816,9914.025
729.620361328,9838.375
729.88873291,9889.9
730.156982422,9939.15
730.425231934,9978.0
730.693481445,9967.725
730.961669922,10034.95
731.229797363,10053.725
731.49798584,10082.45
731.766113281,10157.35
732.034118652,10223.875
732.302246094,10266.125
732.570251465,10305.5
732.838256836,10334.8
733.106262207,10448.325
733.374145508,10462.6
733.642089844,10532.425
733.909973145,10581.175
734.177856445,10668.775
734.445678711,10758.075
734.713562012,10878.625
734.981323242,10894.125
735.249084473,10963.25
735.516845703,11099.8
735.784545898,11196.525
736.052185059,11243.225
736.319885254,11370.875
736.587524414,11397.675
736.855102539,11449.7
737.122619629,11608.175
737.390197754,11625.425
737.657714844,11750.95
737.925170898,11827.6
738.192749023,11946.525
738.460144043,11986.65
738.727539062,12062.175
738.994995117,12189.25
739.262329102,12301.45
739.529663086,12411.775
739.79699707,12444.6
740.06427002,12530.825
740.331481934,12589.5
740.598754883,12626.5
740.865905762,12711.65
741.133056641,12868.875
741.40032959,12863.375
741.667358398,12954.6
741.934448242,13010.225
742.201599121,13042.075
742.468566895,13201.05
742.735534668,13216.975
743.002563477,13238.85
743.26953125,13207.15
743.536437988,13282.45
743.803405762,13401.175
744.0703125,13357.5
744.337097168,13488.5
744.604003906,13414.925
744.870727539,13500.525
745.137512207,13595.85
745.40423584,13565.45
745.670959473,13553.45
745.93762207,13580.675
746.204284668,13587.825
746.470947266,13622.6
746.737548828,13611.675
747.004089355,13641.625
747.270751953,13643.975
747.53717041,13699.3
747.803710938,13582.45
748.070251465,13632.15
748.336608887,13624.3
748.603027344,13576.05
748.869445801,13567.275
749.135803223,13606.3
749.402099609,13594.525
749.668457031,13613.325
749.934753418,13557.55
750.20098877,13519.05
750.467224121,13577.9
750.733459473,13553.975
750.999572754,13550.45
751.26574707,13417.725
751.531860352,13466.725
751.797912598,13422.075
752.064025879,13369.775
752.330078125,13377.45
752.596069336,13310.6
752.862060547,13307.4
753.127990723,13348.075
753.393920898,13311.525
753.659912109,13268.825
753.925720215,13284.875
754.19152832,13223.5
754.457397461,13153.75
754.723144531,13125.725
754.988952637,13082.7
755.254699707,13122.175
755.520385742,13120.1
755.786071777,13111.9
756.051696777,13058.375
756.317382812,13036.675
756.582946777,13004.875
756.848510742,13036.25
757.114074707,12963.225
757.379577637,12939.75
757.645080566,13010.075
757.910583496,12981.5
758.175964355,12867.025
758.441345215,12843.825
758.706848145,12672.375
758.972106934,12706.575
759.237426758,12727.775
759.502807617,12749.425
759.768005371,12758.15
760.03326416,12711.325
760.298522949,12648.675
760.563659668,12663.25
760.828857422,12630.45
761.093994141,12604.375
761.359130859,12548.875
761.624206543,12491.75
761.889282227,12473.85
762.15423584,12494.775
762.419250488,12473.825
762.684265137,12438.275
762.949157715,12378.7
763.214050293,12371.175
763.479003906,12375.375
763.743835449,12369.575
764.008666992,12299.425
764.2734375,12325.0
764.538208008,12340.125
764.802978516,12353.8
765.067687988,12325.2
765.332397461,12333.4
765.597045898,12277.825
765.861694336,12252.8
766.126342773,12189.75
766.390930176,12144.15
766.655395508,12109.825
766.920043945,12060.55
767.184509277,12078.825
767.448974609,12080.0
767.713439941,12041.475
767.977783203,12011.9
768.2421875,12038.125
768.506591797,11947.825
768.770874023,12065.625
769.03515625,12034.05
769.299499512,11980.15
769.563720703,11975.175
769.827941895,11928.4
770.092163086,11908.325
770.356323242,11889.15
770.620483398,11909.725
770.88458252,11913.9
771.148681641,11910.225
771.412719727,11872.475
771.676757812,11920.6
771.940734863,11856.1
772.204711914,11853.475
772.468688965,11832.825
772.73260498,11816.65
772.996459961,11811.725
773.260314941,10542.475
773.524169922,1331.975
773.787963867,158.075
774.051696777,121.425
774.315551758,120.4
774.579223633,122.325
774.842895508,121.625
775.106567383,121.125
775.370239258,119.1
775.633789062,123.0
775.897399902,125.225
776.160949707,118.925
776.424499512,120.725
776.687988281,123.975
776.951477051,124.025
777.214904785,120.8
777.47833252,120.15
