191.299911499,102.0
191.603515625,102.925
191.907119751,99.325
192.210693359,107.05
192.514251709,103.0
192.817810059,104.625
193.121368408,104.775
193.42489624,107.075
193.728408813,99.9
194.031936646,101.35
194.33543396,94.125
194.638916016,112.175
194.94241333,99.65
195.245880127,97.425
195.549331665,98.625
195.852767944,102.375
196.156204224,177.15
196.459625244,168.9
196.763015747,172.75
197.066436768,178.55
197.369812012,171.475
197.673187256,173.45
197.9765625,169.375
198.279922485,169.8
198.583251953,166.7
198.886581421,170.95
199.18989563,179.425
199.493209839,172.65
199.79649353,164.575
200.09979248,177.025
200.403076172,172.275
200.706314087,172.525
201.009567261,174.75
201.312820435,173.725
201.616027832,169.15
201.919235229,161.8
202.222457886,166.35
202.525634766,171.625
202.828826904,162.975
203.132003784,162.975
203.435150146,164.025
203.738296509,162.35
204.041412354,158.325
204.344558716,170.1
204.647659302,165.525
204.950759888,167.975
205.253845215,170.45
205.556930542,166.575
205.859985352,167.725
206.163024902,167.4
206.466079712,166.625
206.769104004,174.95
207.072113037,165.575
207.375137329,164.75
207.678131104,166.675
207.981109619,171.4
208.284088135,166.625
208.587036133,168.5
208.889984131,168.125
209.19291687,171.825
209.495849609,175.075
209.798751831,174.825
210.101654053,167.65
210.404556274,172.375
210.707427979,169.2
211.010269165,176.475
211.31312561,174.825
211.615982056,173.15
211.918807983,171.65
212.221618652,168.4
212.524429321,166.15
212.827224731,175.15
213.130004883,168.8
213.432769775,172.775
213.735534668,168.325
214.038269043,175.175
214.341003418,171.125
214.643737793,172.925
214.946456909,175.975
215.249145508,176.875
215.551834106,176.025
215.854507446,175.5
216.157165527,170.775
216.45980835,172.8
216.762451172,181.125
217.065078735,180.95
217.36769104,177.725
217.670303345,181.125
217.972885132,179.85
218.275466919,185.65
218.578048706,176.475
218.880599976,186.475
219.183120728,183.45
219.485656738,185.15
219.788192749,195.35
220.090682983,202.975
220.393188477,218.825
220.695663452,244.075
220.998138428,254.9
221.300582886,285.1
221.603042603,291.25
221.905487061,322.35
222.207901001,340.95
222.510299683,379.925
222.812728882,417.4
223.115097046,450.625
223.41746521,485.225
223.719848633,523.475
224.022171021,554.225
224.324508667,583.25
224.626846313,630.55
224.929168701,665.425
225.231460571,701.7
225.533737183,724.175
225.836013794,751.35
226.138290405,779.975
226.440536499,801.275
226.742767334,832.775
227.044998169,840.325
227.347213745,871.475
227.649429321,877.525
227.951629639,900.675
228.253799438,895.325
228.555953979,918.65
228.858123779,911.2
229.160263062,927.375
229.462371826,923.4
229.764511108,933.275
230.066619873,925.25
230.36869812,934.825
230.670776367,924.85
230.972854614,919.975
231.274902344,926.975
231.576950073,938.45
231.878967285,926.75
232.180999756,937.625
232.48298645,945.325
232.784988403,942.725
233.086975098,946.55
233.388946533,940.625
233.69090271,943.65
233.992858887,961.15
234.294769287,941.0
234.596694946,948.95
234.898605347,948.4
235.200500488,942.875
235.502380371,945.025
235.804244995,930.85
236.106109619,922.45
236.407958984,930.125
236.709777832,917.375
237.011581421,921.975
237.313400269,904.975
237.615203857,911.325
237.916976929,912.55
238.21875,901.85
238.520507812,890.325
238.822250366,907.4
239.12399292,896.825
239.425704956,902.625
239.727401733,885.875
240.02911377,886.1
240.330780029,885.375
240.632446289,878.85
240.93409729,881.225
241.23576355,886.55
241.537384033,881.7
241.839004517,882.025
242.140594482,882.775
242.442199707,896.0
242.743774414,898.525
243.045333862,904.1
243.346923828,899.675
243.648452759,906.775
243.949966431,907.45
244.251495361,923.5
244.552993774,929.575
244.854492188,933.875
245.155975342,932.75
245.457443237,949.5
245.758880615,951.125
246.060333252,956.15
246.36177063,957.775
246.66317749,965.675
246.964569092,966.25
247.265945435,991.075
247.567337036,997.525
247.86869812,1020.125
248.170059204,1030.6
248.471389771,1037.05
248.772705078,1052.175
249.074035645,1065.85
249.375335693,1085.95
249.676620483,1118.925
249.977890015,1139.525
250.279159546,1173.15
250.58039856,1203.45
250.881637573,1215.425
251.182876587,1246.05
251.484069824,1279.875
251.785263062,1317.85
252.086456299,1355.275
252.387619019,1377.15
252.688781738,1414.05
252.989929199,1446.825
253.291061401,1498.5
253.592178345,1540.1
253.893280029,1582.6
254.194366455,1616.8
254.49546814,1656.575
254.796524048,1682.375
255.097579956,1729.275
255.398620605,1760.2
255.699645996,1811.0
256.000640869,1829.9
256.30166626,1863.45
256.602661133,1908.975
256.903656006,1926.8
257.204589844,1968.625
257.505523682,1990.15
257.80645752,2036.3
258.107391357,2072.825
258.408294678,2072.575
258.709228516,2098.825
259.010070801,2107.325
259.310943604,2138.1
259.611846924,2163.5
259.912658691,2175.35
260.213500977,2183.85
260.514343262,2203.075
260.815124512,2222.55
261.115936279,2230.825
261.416717529,2260.325
261.717468262,2271.825
262.018218994,2277.875
262.318969727,2323.825
262.619689941,2378.325
262.920410156,2397.55
263.221130371,2451.925
263.521789551,2503.55
263.822479248,2544.775
264.123138428,2594.725
264.42376709,2623.4
264.72442627,2664.3
265.025054932,2682.125
265.325622559,2725.925
265.626251221,2742.55
265.926818848,2776.425
266.227386475,2772.125
266.527954102,2788.975
266.828460693,2825.55
267.12902832,2783.925
267.429534912,2818.6
267.730010986,2813.925
268.030517578,2823.55
268.330993652,2842.775
268.631439209,2836.1
268.931915283,2864.4
269.232299805,2865.45
269.532745361,2895.975
269.8331604,2883.9
270.133544922,2902.525
270.433929443,2912.675
270.734313965,2930.95
271.034637451,2950.15
271.334991455,2968.225
271.635314941,3018.05
271.935638428,3060.675
272.235931396,3106.3
272.536254883,3158.2
272.836486816,3195.0
273.136749268,3251.325
273.437011719,3350.425
273.737213135,3419.35
274.037445068,3480.975
274.337677002,3573.775
274.6378479,3633.275
274.938049316,3740.925
275.238220215,3822.825
275.538360596,3937.45
275.838500977,3978.275
276.138641357,4121.575
276.438751221,4172.2
276.738830566,4249.725
277.03894043,4308.05
277.338989258,4412.6
277.639038086,4534.525
277.939056396,4579.45
278.239105225,4648.2
278.539093018,4742.575
278.839141846,4797.175
279.139129639,4880.45
279.439086914,4963.225
279.739044189,5031.325
280.039001465,5114.625
280.338928223,5167.05
280.63885498,5255.65
280.938781738,5299.05
281.238647461,5352.075
281.538513184,5395.55
281.838409424,5454.3
282.138244629,5520.525
282.438079834,5559.3
282.737945557,5617.15
283.037719727,5658.35
283.337524414,5731.0
283.637298584,5757.875
283.937072754,5790.9
284.236816406,5832.45
284.536560059,5836.65
284.836303711,5888.15
285.136016846,5984.0
285.43572998,5986.725
285.735412598,6003.15
286.035064697,6047.8
286.334747314,6115.3
286.634368896,6139.375
286.933990479,6115.125
287.233642578,6107.475
287.533203125,6126.675
287.832824707,6097.875
288.132385254,6050.95
288.431945801,5972.25
288.731506348,5884.5
289.031036377,5783.3
289.330566406,5715.9
289.630065918,5723.125
289.92956543,5735.9
290.229034424,5823.675
290.528503418,5975.65
290.827941895,6107.2
291.127380371,6245.075
291.42678833,6386.0
291.726226807,6494.8
292.025604248,6534.925
292.324981689,6604.55
292.624359131,6616.85
292.923736572,6637.075
293.223052979,6691.325
293.522369385,6692.075
293.821685791,6656.675
294.12097168,6678.85
294.420257568,6650.95
294.719543457,6650.175
295.018768311,6673.725
295.318023682,6597.375
295.617248535,6576.65
295.916442871,6565.8
296.215667725,6481.275
296.514862061,6398.45
296.813995361,6258.525
297.11315918,6089.375
297.412322998,5944.35
297.711425781,5953.6
298.010559082,6096.3
298.309631348,6293.35
298.608734131,6475.9
298.907806396,6642.8
299.206848145,6770.4
299.505889893,6811.95
299.804901123,6952.025
300.103912354,6994.675
300.402954102,7086.4
300.701904297,7141.075
301.00088501,7209.475
301.299835205,7287.35
301.5987854,7290.825
301.897735596,7404.525
302.196624756,7459.625
302.495513916,7500.275
302.794403076,7542.4
303.093292236,7585.45
303.392120361,7681.575
303.690979004,7744.45
303.989837646,7766.85
304.288604736,7808.325
304.587402344,7809.975
304.886199951,7833.1
305.184967041,7910.55
305.483734131,7948.1
305.782501221,7975.25
306.081176758,7966.3
306.37991333,8007.825
306.678619385,8024.575
306.977294922,8051.25
307.275970459,8084.95
307.574645996,8077.9
307.873260498,8061.25
308.171875,8070.95
308.470489502,8090.8
308.769104004,8019.225
309.067687988,8011.75
309.366241455,8027.125
309.664794922,7980.375
309.963348389,7961.3
310.261871338,7999.5
310.560394287,7979.95
310.858856201,7988.8
311.157348633,8049.975
311.455810547,8032.3
311.754272461,8091.475
312.052703857,8136.525
312.351135254,8166.4
312.649536133,8145.7
312.947937012,8123.125
313.246307373,8161.575
313.544647217,8174.85
313.843017578,8137.025
314.141387939,8083.875
314.439697266,8153.9
314.738006592,8067.1
315.036315918,8005.35
315.334564209,7925.875
315.6328125,7917.1
315.931091309,7821.125
316.229309082,7735.75
316.527526855,7607.4
316.825744629,7575.625
317.123901367,7482.725
317.422088623,7429.85
317.720245361,7465.425
318.0184021,7455.55
318.316497803,7508.825
318.614654541,7536.85
318.912750244,7606.35
319.21081543,7580.175
319.50894165,7631.1
319.806945801,7616.975
320.104980469,7647.95
320.403045654,7645.8
320.701049805,7607.75
320.999023438,7580.15
321.297027588,7545.425
321.595001221,7517.575
321.892913818,7497.675
322.190887451,7449.15
322.488830566,7395.925
322.786712646,7348.275
323.084625244,7251.1
323.382507324,7255.9
323.680358887,7178.075
323.978210449,7101.45
324.276062012,7056.25
324.573852539,7016.925
324.871643066,6949.975
325.169464111,6905.925
325.467224121,6866.4
325.764984131,6782.45
326.062744141,6737.9
326.360473633,6657.175
326.658203125,6607.675
326.955871582,6553.75
327.253570557,6487.325
327.551239014,6446.4
327.848907471,6378.425
328.146514893,6316.175
328.444152832,6237.875
328.741790771,6207.725
329.039367676,6146.3
329.336914062,6111.95
329.634521484,6073.65
329.932067871,6016.625
330.229553223,5933.3
330.527160645,5896.6
330.824615479,5849.2
331.12210083,5779.85
331.419586182,5679.575
331.717041016,5639.075
332.014465332,5558.075
332.311920166,5522.475
332.609313965,5481.875
332.906707764,5479.375
333.204101562,5459.425
333.501495361,5451.4
333.798828125,5502.4
334.096160889,5541.875
334.39352417,5601.875
334.690795898,5629.95
334.988098145,5682.175
335.285400391,5738.9
335.582641602,5743.775
335.879882812,5770.075
336.177124023,5788.025
336.474334717,5844.725
336.77154541,5856.5
337.068725586,5865.2
337.365905762,5884.175
337.66305542,5879.55
337.960205078,5901.725
338.257324219,5924.775
338.554443359,5913.975
338.8515625,5961.6
339.148590088,5944.2
339.445648193,5953.5
339.742736816,5933.9
340.039764404,5917.325
340.336761475,5885.675
340.63381958,5824.85
340.930755615,5804.875
341.227722168,5735.25
341.524688721,5670.2
341.821624756,5636.025
342.118560791,5650.875
342.415496826,5731.8
342.712402344,5832.025
343.009246826,5972.0
343.306121826,6074.725
343.602966309,6108.275
343.899810791,6202.5
344.196624756,6280.9
344.493438721,6300.625
344.79019165,6356.0
345.086975098,6389.225
345.383758545,6441.125
345.680480957,6412.925
345.977203369,6439.375
346.273956299,6496.3
346.570617676,6462.425
346.86730957,6502.925
347.163970947,6465.15
347.460601807,6495.2
347.757232666,6501.825
348.053894043,6506.4
348.350463867,6423.55
348.647064209,6411.125
348.943634033,6409.8
349.24017334,6420.45
349.536712646,6373.725
349.833251953,6386.275
350.129760742,6342.3
350.426208496,6361.1
350.722747803,6335.725
351.019195557,6316.5
351.315612793,6277.5
351.612060547,6226.325
351.908508301,6199.15
352.204864502,6125.025
352.501281738,6097.0
352.797637939,6040.175
353.093963623,5961.2
353.390319824,5921.1
353.686645508,5836.25
353.982940674,5757.475
354.27923584,5712.7
354.575531006,5679.75
354.871765137,5670.6
355.167999268,5653.8
355.464233398,5652.45
355.760437012,5666.3
356.056640625,5673.1
356.352813721,5655.525
356.648956299,5676.2
356.945129395,5687.675
357.241271973,5668.65
357.537384033,5713.25
357.833496094,5648.55
358.129577637,5615.05
358.425628662,5621.75
358.721679688,5586.975
359.017730713,5573.125
359.313720703,5514.675
359.609710693,5497.825
359.905761719,5458.15
360.201721191,5419.625
360.497650146,5344.125
360.793609619,5328.95
361.089538574,5277.7
361.385437012,5201.575
361.681365967,5163.85
361.977233887,5113.8
362.273071289,5055.8
362.568908691,4971.55
362.864746094,4846.125
363.160552979,4748.35
363.456359863,4562.425
363.752166748,4466.275
364.047912598,4365.0
364.343658447,4356.275
364.639434814,4367.9
364.935119629,4420.1
365.230834961,4469.225
365.526550293,4501.075
365.822174072,4506.525
366.117858887,4509.1
366.413482666,4571.725
366.709075928,4577.05
367.004730225,4496.8
367.300292969,4491.45
367.595855713,4531.825
367.891448975,4431.8
368.186981201,4348.85
368.482513428,4292.15
368.778015137,4305.575
369.073547363,4263.25
369.36895752,4269.475
369.664428711,4176.8
369.95993042,4075.225
370.255310059,4043.4
370.550720215,4019.55
370.846160889,3993.95
371.14151001,3942.825
371.436859131,3918.9
371.73223877,3901.15
372.027557373,3883.525
372.322875977,3829.075
372.618164062,3803.625
372.913482666,3759.8
373.208709717,3749.375
373.503967285,3694.2
373.799194336,3650.575
374.094421387,3664.825
374.389648438,3629.1
374.684844971,3622.05
374.979980469,3658.425
375.275146484,3672.425
375.570281982,3701.95
375.865386963,3698.625
376.160522461,3647.725
376.455596924,3641.875
376.750640869,3737.675
377.045715332,3748.45
377.340759277,3783.575
377.635772705,3838.225
377.93081665,3861.15
378.225769043,3934.6
378.520751953,4004.4
378.815734863,3941.125
379.110656738,4108.275
379.405548096,4251.275
379.700500488,4138.85
379.995391846,3925.425
380.290252686,3962.025
380.585083008,4054.5
380.879974365,4108.5
381.17477417,4020.425
381.469543457,3969.2
381.764404297,3949.425
382.059143066,3990.8
382.353912354,4083.65
382.648651123,4147.45
382.943389893,4108.425
383.238067627,3966.75
383.532775879,3958.225
383.827484131,3922.95
384.12210083,3935.45
384.416778564,3861.45
384.711425781,3771.825
385.006011963,3816.675
385.300628662,3796.775
385.595184326,3883.275
385.88973999,3961.575
386.184295654,4050.875
386.478820801,4141.4
386.77331543,4209.25
387.067840576,4321.5
387.362335205,4386.075
387.656768799,4466.65
387.951202393,4491.65
388.245635986,4559.325
388.540039062,4620.875
388.834472656,4714.45
389.128875732,4608.425
389.423187256,4395.575
389.717559814,4336.3
390.011871338,4435.725
390.306182861,4470.125
390.600463867,4485.5
390.894775391,4552.875
391.189025879,4580.525
391.48324585,4558.175
391.777526855,4609.275
392.071685791,4823.9
392.365875244,4899.2
392.660064697,4965.3
392.95425415,5285.525
393.248382568,5262.325
393.542510986,4823.025
393.836608887,4659.025
394.130706787,4674.15
394.424804688,4615.85
394.71887207,4725.3
395.012878418,4717.425
395.306915283,4605.4
395.600921631,4537.2
395.894927979,4499.5
396.188903809,4551.65
396.482879639,4585.75
396.776794434,4755.95
397.070739746,4719.85
397.364654541,4743.1
397.658538818,5109.05
397.952423096,5135.975
398.246307373,5088.85
398.540100098,5589.125
398.833953857,5459.125
399.127746582,5035.975
399.421508789,5026.125
399.715301514,4958.375
400.009063721,4891.475
400.30279541,4752.3
400.596496582,4673.625
400.890258789,4833.825
401.183929443,4913.925
401.47756958,4776.975
401.771240234,4568.5
402.064880371,4594.15
402.35848999,4633.225
402.652130127,4536.35
402.945678711,4607.45
403.239257812,4542.1
403.532775879,4514.5
403.82635498,4547.8
404.119842529,4474.35
404.413360596,4466.925
404.706848145,4517.45
405.000274658,4448.775
405.293762207,4520.5
405.587188721,4557.175
405.880584717,4423.6
406.17401123,4259.9
406.467407227,4040.25
406.760742188,4083.325
407.054107666,4118.7
407.347442627,4052.0
407.640716553,4014.025
407.934051514,4069.15
408.227325439,4124.875
408.520568848,4339.475
408.813842773,4418.8
409.107086182,4236.05
409.400238037,4188.5
409.693450928,4131.525
409.986633301,4239.8
410.279754639,4146.15
410.572875977,3877.15
410.86605835,3811.725
411.159118652,3844.65
411.452209473,3820.975
411.745330811,3715.975
412.038360596,3634.575
412.331390381,3667.525
412.624420166,3700.05
412.917388916,3627.125
413.210388184,3449.025
413.503387451,3424.75
413.796295166,3339.55
414.089233398,3167.2
414.382141113,3112.45
414.675048828,3076.875
414.967926025,3110.7
415.260803223,3047.25
415.55368042,3077.325
415.846466064,3049.575
416.139282227,3125.325
416.432098389,3221.0
416.724853516,3226.4
417.017608643,3166.875
417.31036377,3178.575
417.603088379,3310.1
417.895782471,3277.925
418.188476562,3237.6
418.481140137,3317.425
418.773803711,3353.8
419.066436768,3338.575
419.359039307,3419.15
419.651641846,3399.0
419.944244385,3418.6
420.236816406,3380.875
420.529327393,3568.875
420.821899414,3645.85
421.114379883,3571.925
421.406860352,3818.4
421.699371338,4024.65
421.991821289,3978.75
422.284240723,3787.525
422.576721191,3643.925
422.869110107,3552.525
423.161468506,3512.475
423.453857422,3530.95
423.74621582,3415.575
424.038543701,3284.0
424.330871582,3260.0
424.623168945,3210.575
424.915435791,3321.625
425.207702637,3290.775
425.499969482,3233.825
425.792205811,3189.175
426.084411621,2951.7
426.376617432,3031.275
426.668762207,3109.525
426.9609375,2977.425
427.253082275,3088.35
427.545196533,3485.75
427.837310791,3213.925
428.129425049,2943.35
428.421447754,3154.675
428.713531494,3142.175
429.005554199,3134.475
429.297576904,3152.375
429.589599609,3548.8
429.881561279,3835.925
430.173522949,3623.55
430.465484619,3582.425
430.757415771,3663.4
431.049316406,3443.85
431.341186523,3222.325
431.633117676,3125.625
431.924957275,2857.65
432.21673584,2759.05
432.508636475,2898.875
432.800415039,2917.55
433.092163086,2799.5
433.383972168,2784.425
433.675689697,3439.025
433.967437744,3905.275
434.259155273,3018.55
434.550872803,2722.45
434.842498779,2765.675
435.134185791,2900.25
435.425842285,2915.925
435.717437744,2819.35
436.009063721,2642.675
436.30065918,2782.8
436.592224121,3109.175
436.883758545,2932.275
437.175323486,2683.575
437.466827393,2669.3
437.758331299,2682.15
438.049804688,2676.525
438.341247559,2751.4
438.63269043,2818.325
438.924163818,2816.45
439.215515137,2781.85
439.50692749,2685.6
439.798309326,2677.65
440.089660645,2696.325
440.380981445,2609.725
440.672332764,2614.825
440.963623047,2865.025
441.254882812,3287.75
441.546173096,3440.6
441.837402344,3215.775
442.128631592,3029.575
442.41986084,3017.375
442.711029053,2897.975
443.002197266,2980.625
443.293365479,3141.0
443.584503174,3252.475
443.875610352,3208.775
444.166717529,2981.975
444.457794189,3036.9
444.748840332,3041.7
445.039916992,2982.625
445.330932617,3068.875
445.621948242,2932.15
445.912963867,2729.125
446.203918457,2960.55
446.494812012,3169.375
446.785827637,2973.175
447.076721191,2800.875
447.367584229,2795.6
447.658447266,2766.675
447.949371338,2820.975
448.24017334,2699.7
448.530975342,2646.775
448.821838379,2807.875
449.112579346,2863.15
449.40335083,2800.95
449.694152832,2820.575
449.984863281,2844.7
450.27557373,2772.25
450.56628418,2831.525
450.856933594,2842.475
451.147583008,2692.925
451.438262939,2594.95
451.728881836,2793.325
452.019470215,2893.6
452.310089111,2681.9
452.600646973,2710.525
452.891174316,2763.875
453.181732178,2583.4
453.472229004,2474.525
453.762695312,2579.175
454.053222656,2610.15
454.343658447,2490.55
454.634063721,2421.65
454.924530029,2576.7
455.214935303,2712.35
455.505279541,2784.4
455.795715332,2665.075
456.086029053,2468.7
456.376312256,2443.25
456.666687012,2472.95
456.956939697,2583.55
457.247192383,2585.525
457.537445068,2643.825
457.827728271,2805.725
458.117919922,2738.25
458.408081055,2670.975
458.698303223,2847.6
458.988433838,2783.1
459.278564453,2619.225
459.568725586,2881.8
459.858825684,2984.5
460.148864746,2697.1
460.438995361,2662.0
460.729034424,2718.475
461.019042969,2710.225
461.309082031,2892.6
461.599060059,2782.3
461.889007568,2369.1
462.179016113,2197.725
462.468933105,2427.6
462.75881958,2523.8
463.048736572,2286.175
463.338592529,2529.3
463.628448486,2857.125
463.918365479,2591.825
464.2081604,2735.975
464.497924805,2724.425
464.787780762,2820.75
465.077514648,3095.375
465.367218018,2749.1
465.657012939,2943.4
465.946685791,3315.75
466.236358643,2948.1
466.526092529,2462.475
466.815734863,2467.45
467.105316162,2397.475
467.394927979,2407.225
467.684570312,2287.3
467.974121094,2359.025
468.263671875,2475.375
468.553222656,2254.425
468.842773438,2171.05
469.132232666,2065.4
469.42175293,2096.45
469.711212158,2061.85
470.000640869,1956.425
470.290100098,2008.5
470.579498291,2038.775
470.868835449,2047.3
471.158294678,2004.075
471.447601318,1984.1
471.736907959,2049.525
472.026275635,2106.45
472.315551758,2096.875
472.604797363,2081.15
472.894104004,2205.775
473.183319092,2307.25
473.47253418,2299.375
473.761779785,2293.85
474.05090332,2230.25
474.340087891,2177.15
474.629241943,2111.7
474.918365479,2269.025
475.207427979,2529.225
475.496551514,2560.075
475.785614014,2292.225
476.074645996,2130.25
476.363708496,2203.175
476.652679443,2345.45
476.941650391,2165.375
477.230682373,2031.475
477.519622803,2024.775
477.808502197,2166.025
478.097412109,2404.275
478.386352539,2371.025
478.675201416,2109.325
478.964050293,2027.575
479.25289917,2210.175
479.541717529,2249.425
479.830474854,2096.075
480.11932373,2423.925
480.408050537,2583.95
480.696777344,2217.675
480.985534668,2105.35
481.274200439,2192.175
481.562866211,2420.875
481.851593018,2439.625
482.140197754,2382.15
482.428833008,2245.225
482.717468262,2054.8
483.006011963,2083.525
483.294586182,2188.875
483.5831604,2226.35
483.871673584,2101.425
484.16015625,2212.75
484.448699951,2439.7
484.7371521,2489.9
485.02557373,2480.7
485.314025879,2228.0
485.602416992,3469.5
485.890777588,12302.85
486.179199219,10986.6
486.467559814,2932.0
486.755859375,2143.925
487.044219971,2486.85
487.332519531,2659.475
487.620758057,2284.975
487.908966064,2042.7
488.197265625,1859.675
488.485473633,1774.975
488.773651123,1881.15
489.061859131,1870.575
489.350006104,1827.275
489.638122559,1775.1
489.926300049,1789.35
490.214355469,1748.85
490.502441406,1697.975
490.790527344,1635.85
491.078552246,1804.425
491.366546631,1812.1
491.654602051,1589.75
491.942565918,1663.7
492.230499268,1701.35
492.518493652,1657.25
492.806396484,1703.3
493.094268799,1616.025
493.382202148,1647.85
493.670074463,1754.725
493.957885742,1617.6
494.245727539,1609.25
494.533508301,1759.85
494.821289062,1666.85
495.109100342,1511.5
495.396850586,1477.7
495.684539795,1445.9
495.972290039,1629.35
496.25994873,1935.125
496.547607422,1937.725
496.835296631,1769.475
497.122894287,1487.55
497.410522461,1408.975
497.6980896,1401.625
497.985687256,1384.5
498.273223877,1471.175
498.560760498,1532.65
498.848266602,1552.35
499.135772705,1527.4
499.423217773,1576.825
499.710693359,1655.05
499.998138428,1596.375
500.285522461,1455.475
500.572937012,1385.5
500.860290527,1431.875
501.147644043,1518.95
501.434997559,1726.05
501.722290039,1610.65
502.00958252,1390.45
502.296875,1622.35
502.584106445,1610.625
502.871337891,1456.075
503.158599854,1522.625
503.445770264,1600.675
503.732910156,1565.45
504.020141602,1403.35
504.307220459,1387.2
504.594329834,1406.75
504.881469727,1359.425
505.168518066,1422.45
505.455535889,1479.725
505.742614746,1372.525
506.029632568,1320.55
506.316589355,1481.525
506.603637695,1551.7
506.890563965,1377.6
507.177459717,1232.7
507.464385986,1157.075
507.751312256,1356.3
508.038146973,1423.325
508.325012207,1295.25
508.611877441,1354.0
508.898681641,1357.675
509.185424805,1216.875
509.472259521,1187.175
509.759002686,1253.35
510.045715332,1286.675
510.332458496,1228.025
510.619140625,1296.225
510.905761719,1217.15
511.192504883,1213.225
511.479095459,1240.65
511.765686035,1199.175
512.052307129,1120.35
512.338928223,1089.45
512.625427246,1121.05
512.91204834,1180.325
513.198486328,1161.0
513.484985352,1130.525
513.77142334,1069.475
514.057922363,1106.95
514.344299316,1109.425
514.63079834,1064.275
514.917175293,1057.05
515.203552246,970.3
515.489868164,949.275
515.776245117,1047.275
516.0625,1092.425
516.348815918,1019.45
516.635070801,1051.7
516.921325684,1093.275
517.207580566,1035.325
517.493774414,957.55
517.779968262,963.225
518.066101074,999.225
518.352294922,956.125
518.638366699,954.45
518.924499512,1025.875
519.210632324,1093.675
519.496643066,1064.3
519.782714844,970.575
520.068786621,944.6
520.354736328,906.35
520.640686035,877.0
520.926757812,919.0
521.212646484,979.8
521.498535156,990.725
521.784484863,935.4
522.0703125,872.975
522.356262207,892.375
522.642089844,959.475
522.927856445,950.975
523.213684082,943.25
523.499511719,937.075
523.78527832,969.65
524.070983887,1015.85
524.356750488,991.75
524.64239502,963.275
524.928039551,953.575
525.213806152,972.25
525.499389648,966.3
525.784973145,985.7
526.070617676,1022.9
526.356140137,987.475
526.641723633,995.5
526.927307129,1049.775
527.212768555,1057.45
527.498291016,1032.0
527.783752441,1036.375
528.069213867,1013.45
528.354675293,1034.225
528.640014648,1174.05
528.925476074,1232.075
529.21081543,1160.35
529.496154785,1141.275
529.781555176,1119.8
530.066833496,1131.775
530.352050781,1151.6
530.637390137,1138.975
530.922607422,1129.075
531.207824707,1134.275
531.493041992,1115.8
531.778198242,1180.775
532.063354492,1155.625
532.348571777,1108.9
532.633666992,1132.525
532.918762207,1189.65
533.203857422,1269.675
533.488891602,1295.825
533.773925781,1243.45
534.059020996,1213.4
534.343933105,1251.2
534.628967285,1218.125
534.91394043,1231.575
535.198852539,1246.775
535.483703613,1220.775
535.768676758,1180.575
536.053527832,1181.575
536.338317871,1135.025
536.62322998,1091.425
536.90802002,1061.475
537.192810059,1090.4
537.477539062,1145.825
537.762329102,1181.475
538.047058105,1228.4
538.331726074,1249.9
538.616455078,1235.7
538.901123047,1217.0
539.18572998,1258.725
539.470397949,1247.925
539.755004883,1254.1
540.039550781,1218.95
540.32409668,1182.775
540.608703613,1211.975
540.893188477,1303.175
541.17767334,1305.125
541.462158203,1308.875
541.746643066,1268.25
542.031066895,1292.5
542.315429688,1336.05
542.59979248,1330.65
542.884216309,1324.65
543.168579102,1306.15
543.452941895,1318.075
543.737243652,1356.85
544.021484375,1405.25
544.305725098,1383.8
544.590026855,1375.275
544.874267578,1379.325
545.158447266,1444.75
545.442626953,1374.725
545.726806641,1281.125
546.010925293,1305.3
546.29510498,1339.525
546.579162598,1323.2
546.863220215,1350.275
547.147277832,1419.575
547.431335449,1472.5
547.715332031,1537.7
547.999328613,1617.775
548.283325195,1627.125
548.567260742,1509.525
548.851135254,1482.75
549.135070801,1455.45
549.419006348,1375.5
549.702819824,1448.925
549.986755371,1523.55
550.270507812,1492.15
550.554321289,1533.275
550.83807373,1535.825
551.121826172,1496.025
551.405517578,1525.2
551.689331055,1610.3
551.973022461,1791.85
552.256652832,1858.6
552.540344238,1771.6
552.823974609,1745.075
553.107543945,1736.525
553.391174316,1775.7
553.674743652,1828.05
553.958251953,1850.175
554.241821289,1844.3
554.525268555,1785.125
554.808776855,1785.675
555.092285156,1944.575
555.375671387,2006.475
555.659057617,1998.825
555.942504883,2036.175
556.225891113,2060.55
556.509216309,2025.1
556.792541504,1948.95
557.075866699,2001.525
557.359130859,2041.375
557.64239502,2037.175
557.92565918,2099.475
558.208862305,2092.875
558.49206543,2027.95
558.77532959,2051.65
559.058410645,2078.125
559.341552734,2077.625
559.624694824,2125.7
559.907775879,2176.875
560.190856934,2275.55
560.473937988,2278.5
560.756896973,2281.775
561.039978027,2326.4
561.322937012,2290.725
561.605895996,2292.9
561.88885498,2252.1
562.171813965,2256.2
562.454650879,2253.575
562.737548828,2290.475
563.020446777,2336.575
563.303283691,2351.375
563.58605957,2386.525
563.868896484,2384.625
564.151672363,2428.3
564.434387207,2454.85
564.717163086,2440.375
564.99987793,2455.725
565.282531738,2520.1
565.565185547,2490.425
565.847839355,2489.0
566.130432129,2573.9
566.413085938,2546.775
566.695678711,2577.05
566.978149414,2656.5
567.260681152,2784.9
567.543273926,2839.425
567.825744629,2768.725
568.108154297,2795.7
568.390686035,2901.525
568.673095703,2990.425
568.955505371,3037.575
569.237854004,3063.825
569.520202637,3282.5
569.802490234,3471.2
570.084838867,3441.35
570.367126465,3312.475
570.649414062,3323.125
570.93170166,3637.25
571.213928223,3683.425
571.496154785,3493.95
571.778381348,3664.25
572.06048584,3894.225
572.342590332,3508.75
572.624755859,3218.25
572.906860352,3255.95
573.188903809,3821.75
573.470947266,4039.775
573.752990723,3852.825
574.03503418,3925.425
574.317016602,4261.3
574.598937988,4088.65
574.88092041,3979.8
575.162841797,4140.975
575.444763184,3831.45
575.726623535,3611.925
576.008483887,3663.325
576.290344238,3975.475
576.572143555,4163.725
576.853881836,4231.025
577.135681152,4131.75
577.417419434,4190.45
577.699157715,4936.475
577.980895996,5074.15
578.262573242,4518.55
578.544128418,4121.75
578.825866699,4066.2
579.107421875,3821.925
579.388977051,3961.65
579.670593262,4306.075
579.952148438,4157.575
580.233642578,4252.575
580.515197754,4348.775
580.796691895,4069.975
581.078125,4241.375
581.359619141,5547.275
581.640991211,5614.6
581.922363281,4829.275
582.203796387,4890.8
582.485107422,4580.925
582.766418457,4245.35
583.047790527,4125.75
583.329040527,4041.725
583.610290527,3930.825
583.891540527,4030.05
584.172790527,4293.85
584.453918457,4332.55
584.735107422,4373.725
585.016235352,4749.35
585.297363281,4734.225
585.578552246,4567.35
585.859619141,4517.875
586.140625,4339.55
586.421630859,4210.875
586.702697754,4236.65
586.983642578,4455.35
587.264648438,4599.4
587.545654297,4565.95
587.826477051,4520.425
588.107421875,4348.05
588.388305664,4378.275
588.669189453,4483.925
588.950012207,4349.475
589.230834961,4266.9
589.511657715,4347.1
589.792358398,4442.075
590.073120117,4453.8
590.353881836,4428.775
590.63458252,4460.425
590.915283203,4427.825
591.195922852,4419.5
591.4765625,4467.375
591.757202148,4492.675
592.037780762,4504.425
592.31829834,4521.875
592.598937988,4679.375
592.879394531,4841.625
593.159912109,4775.75
593.440429688,4732.575
593.720825195,4710.1
594.001281738,4687.825
594.281677246,4618.35
594.562072754,4653.375
594.842407227,4745.7
595.122802734,4780.275
595.403137207,4760.325
595.683410645,4747.275
595.963623047,4740.6
596.243896484,4715.9
596.524169922,4692.575
596.804382324,4709.55
597.084533691,4763.925
597.364746094,4785.875
597.644836426,4825.5
597.924987793,4803.5
598.205078125,4790.925
598.485107422,4811.5
598.765197754,4896.25
599.045227051,4974.1
599.325195312,4884.975
599.605224609,4839.7
599.885192871,4891.575
600.165100098,4936.575
600.445007324,4911.675
600.724914551,4896.675
601.004760742,4904.825
601.284667969,4939.025
601.56451416,4927.2
601.844238281,4948.575
602.124084473,4935.575
602.403808594,4954.325
602.683532715,4991.7
602.963256836,4974.7
603.242919922,5013.275
603.522583008,5053.85
603.802246094,5025.4
604.081848145,5010.275
604.36138916,4986.15
604.641052246,5031.65
604.920532227,4990.5
605.200073242,5051.875
605.479614258,5059.125
605.759094238,5106.4
606.038574219,5087.025
606.317932129,5039.55
606.597412109,5039.725
606.87677002,5056.8
607.15612793,5105.0
607.435546875,5105.2
607.714782715,5105.625
607.99407959,5080.95
608.273376465,5092.75
608.552612305,5102.125
608.831848145,5088.375
609.111083984,5099.675
609.390258789,5089.05
609.669433594,5090.1
609.948608398,5152.3
610.227722168,5143.0
610.506713867,5086.45
610.785888672,5110.25
611.064880371,5107.775
611.34387207,5124.775
611.622924805,5126.575
611.901916504,5131.35
612.180847168,5089.85
612.459777832,5051.525
612.738647461,5091.275
613.01751709,5051.975
613.296447754,5026.25
613.575317383,5009.625
613.854064941,4968.375
614.132873535,4865.05
614.411621094,4817.7
614.690368652,4784.2
614.969177246,4737.625
615.247802734,4681.625
615.526489258,4642.875
615.805175781,4554.975
616.08380127,4445.075
616.362365723,4380.2
616.640991211,4333.45
616.919555664,4282.45
617.198059082,4385.825
617.4765625,4619.925
617.755126953,4773.025
618.033569336,4811.275
618.311950684,4797.125
618.590454102,4791.4
618.868774414,4762.275
619.147155762,4770.025
619.425598145,4745.275
619.703857422,4784.65
619.982177734,4782.8
620.260498047,4772.75
620.538757324,4768.225
620.816955566,4747.975
621.095214844,4696.575
621.373413086,4710.375
621.651550293,4768.375
621.929748535,4796.75
622.207824707,4754.5
622.485900879,4780.675
622.764038086,4772.225
623.042053223,4807.025
623.320007324,4831.275
623.598083496,4833.325
623.876037598,4830.125
624.153991699,4822.0
624.432006836,4852.95
624.709838867,4865.975
624.987731934,4842.25
625.265563965,4833.8
625.543395996,4850.725
625.821228027,4909.625
626.098999023,4881.525
626.376831055,4940.025
626.654541016,4963.275
626.932250977,4967.475
627.209960938,5021.825
627.487670898,5031.15
627.765319824,5053.2
628.04296875,5048.975
628.320495605,5064.075
628.598083496,5078.2
628.875671387,5086.675
629.153259277,5120.375
629.430725098,5152.6
629.708251953,5138.6
629.985656738,5160.5
630.263122559,5191.975
630.540588379,5215.025
630.817932129,5245.15
631.095275879,5277.5
631.372680664,5311.65
631.649963379,5340.4
631.927246094,5377.075
632.204589844,5397.275
632.481811523,5445.95
632.759033203,5522.6
633.036254883,5523.55
633.313415527,5595.8
633.590576172,5651.875
633.867736816,5737.975
634.144836426,5784.75
634.421875,5839.375
634.698913574,5882.4
634.976013184,5921.45
635.252990723,5999.6
635.529968262,6020.95
635.807006836,6077.025
636.08392334,6052.175
636.360839844,5967.375
636.637756348,5871.975
636.914611816,5848.45
637.191467285,5815.425
637.468261719,5889.725
637.745056152,5872.7
638.021789551,5870.775
638.298583984,5883.175
638.575317383,5898.85
638.851989746,5905.725
639.12878418,5923.075
639.405395508,5917.8
639.682006836,5930.325
639.958618164,5917.075
640.235229492,5916.25
640.511779785,5933.8
640.788330078,5889.125
641.064880371,5890.65
641.341308594,5855.775
641.617797852,5881.25
641.894226074,5885.925
642.170654297,5906.925
642.44708252,5890.825
642.723388672,5893.15
642.999755859,5883.725
643.276123047,5881.55
643.552429199,5837.0
643.828674316,5864.0
644.104919434,5835.05
644.381164551,5831.3
644.657348633,5853.0
644.933532715,5787.6
645.209716797,5810.15
645.485839844,5799.4
645.761901855,5783.4
646.038024902,5761.6
646.314086914,5790.85
646.590087891,5775.975
646.866149902,5785.75
647.142150879,5761.85
647.41809082,5727.325
647.694030762,5718.325
647.969970703,5695.825
648.245788574,5725.65
648.521728516,5697.425
648.797546387,5676.375
649.073303223,5707.7
649.349182129,5675.625
649.624938965,5668.05
649.900634766,5638.375
650.176391602,5654.6
650.452087402,5619.1
650.727783203,5639.8
651.003479004,5634.25
651.279052734,5633.55
651.554626465,5603.75
651.83026123,5607.8
652.105773926,5613.65
652.381286621,5567.15
652.656860352,5543.375
652.932312012,5555.6
653.207763672,5575.25
653.483215332,5585.6
653.758605957,5572.325
654.033935547,5572.875
654.309326172,5561.825
654.584716797,5587.3
654.859985352,5572.65
655.135253906,5579.4
655.410583496,5606.25
655.685791016,6426.225
655.9609375,10034.975
656.236206055,9822.975
656.511291504,6463.25
656.786437988,5701.225
657.061645508,5566.75
657.336669922,5567.85
657.611694336,5603.45
657.886779785,5595.7
658.161804199,5624.3
658.436828613,5576.0
658.711791992,5566.475
658.986755371,5613.55
659.261657715,5570.8
659.536621094,5598.775
659.811401367,5603.475
660.086303711,5610.725
660.36114502,5593.575
660.635864258,5582.075
660.910644531,5620.475
661.185424805,5603.025
661.460205078,5595.3
661.734863281,5596.775
662.009521484,5581.325
662.284179688,5587.475
662.558776855,5638.475
662.833435059,5656.15
663.108032227,5631.325
663.382568359,5625.0
663.657043457,5651.125
663.93157959,5694.4
664.206054688,5654.55
664.48046875,5687.25
664.755004883,5702.475
665.02935791,5681.65
665.303710938,5712.3
665.578125,5724.6
665.852416992,5709.175
666.126708984,5714.225
666.401062012,5722.25
666.675292969,5739.4
666.949462891,5766.85
667.223754883,5736.65
667.497924805,5763.225
667.772094727,5777.75
668.046264648,5739.35
668.3203125,5784.125
668.594421387,5766.4
668.868469238,5789.325
669.14251709,5807.8
669.416503906,5782.725
669.690551758,5808.125
669.964477539,5796.725
670.23840332,5788.2
670.512329102,5798.625
670.786254883,5773.375
671.060058594,5801.65
671.333984375,5810.75
671.607788086,5826.575
671.881530762,5823.225
672.155334473,5836.425
672.429077148,5870.35
672.702758789,5867.375
672.97644043,5844.725
673.25012207,5834.65
673.523742676,5822.125
673.797302246,5825.8
674.070922852,5890.45
674.344482422,5879.95
674.618041992,5870.8
674.891601562,5874.625
675.165100098,5894.675
675.438476562,5875.075
675.711975098,5887.4
675.985412598,5876.025
676.258789062,5847.925
676.532165527,5876.6
676.805480957,5868.35
677.078796387,5878.25
677.352111816,5908.525
677.625366211,5878.35
677.898620605,5868.425
678.171875,5897.425
678.445007324,5886.725
678.718200684,5916.95
678.991394043,5907.25
679.264404297,5896.45
679.537536621,5923.3
679.81060791,5924.875
680.083679199,5932.2
680.356689453,5944.175
680.629699707,5927.55
680.902648926,5929.575
681.175598145,5962.375
681.448547363,5989.925
681.721435547,5928.975
681.99420166,5944.25
682.267150879,5923.55
682.539916992,5967.45
682.812744141,5951.775
683.085510254,5956.375
683.358215332,5964.475
683.63092041,5916.55
683.903625488,5931.075
684.176330566,5911.4
684.448913574,5915.725
684.721557617,5899.475
684.99420166,5979.375
685.266662598,5982.925
685.539245605,5971.6
685.811767578,5997.575
686.084289551,6005.1
686.356689453,6031.625
686.629150391,6024.375
686.901550293,6022.975
687.17401123,6034.55
687.446350098,6060.825
687.718688965,6044.4
687.990966797,6092.925
688.263305664,6070.675
688.535522461,6060.225
688.807739258,6058.275
689.079956055,6091.025
689.352172852,6110.325
689.624328613,6104.825
689.896484375,6109.7
690.168518066,6122.125
690.440612793,6130.675
690.71270752,6140.35
690.984741211,6150.275
691.256713867,6176.45
691.528747559,6146.925
691.800720215,6168.75
692.072631836,6192.525
692.344543457,6197.225
692.616394043,6218.9
692.888244629,6197.125
693.160095215,6232.475
693.431945801,6253.15
693.703674316,6242.925
693.975463867,6215.175
694.247131348,6273.55
694.518859863,6243.425
694.790588379,6289.4
695.062255859,6269.5
695.33380127,6258.15
695.60546875,6264.3
695.87701416,6292.375
696.148498535,6295.15
696.42010498,6320.2
696.691589355,6322.05
696.96307373,6335.65
697.234558105,6374.825
697.50592041,6376.075
697.777282715,6409.375
698.048706055,6372.125
698.320068359,6412.85
698.591308594,6392.0
698.862670898,6388.2
699.133972168,6448.8
699.405151367,6415.4
699.676391602,6457.3
699.947570801,6455.75
700.21875,6432.2
700.489868164,6440.55
700.761047363,6454.025
701.032104492,6499.3
701.303100586,6460.475
701.57421875,6514.45
701.845214844,6525.025
702.116149902,6509.3
702.387207031,6484.25
702.65814209,6510.025
702.928955078,6556.55
703.199951172,6502.775
703.47076416,6492.725
703.741577148,6506.625
704.012451172,6546.55
704.28314209,6551.675
704.553955078,6559.325
704.824707031,6576.475
705.095397949,6591.7
705.366027832,6587.85
705.63671875,6603.15
705.907348633,6596.9
706.17791748,6616.8
706.448486328,6638.4
706.719055176,6655.925
706.989562988,6648.6
707.260131836,6696.075
707.530517578,6705.575
707.800964355,6694.225
708.071411133,6668.525
708.341796875,6680.05
708.612182617,6685.2
708.882446289,6676.7
709.152893066,6677.525
709.423156738,6699.75
709.693359375,6683.125
709.963623047,6689.225
710.233825684,6720.75
710.503967285,6699.55
710.774169922,6706.225
711.044311523,6715.525
711.31439209,6711.925
711.584533691,6751.425
711.854553223,6718.35
712.124572754,6763.65
712.39465332,6722.0
712.664611816,6757.875
712.934509277,6785.05
713.204467773,6772.375
713.474365234,6827.3
713.74420166,6790.675
714.014099121,6782.85
714.283874512,6809.325
714.553710938,6839.125
714.823486328,6846.325
715.093200684,6819.925
715.362915039,6844.8
715.632629395,6830.175
715.902282715,6811.95
716.171875,6827.3
716.441589355,6842.375
716.711181641,6798.45
716.980712891,6842.075
717.250244141,6837.125
717.519775391,6848.6
717.78918457,6865.575
718.058654785,6907.875
718.328125,6923.225
718.597473145,6907.625
718.866882324,6884.8
719.136230469,6894.575
719.405578613,6930.725
719.674865723,6970.775
719.944152832,6933.025
720.213439941,6919.975
720.48260498,6951.85
720.75177002,6987.675
721.020996094,6937.8
721.290100098,6977.125
721.559204102,6955.2
721.828308105,6974.025
722.097351074,6991.9
722.366455078,6962.25
722.635437012,6949.75
722.904418945,6928.775
723.173400879,7000.9
723.442321777,7024.05
723.711181641,7003.5
723.980102539,7039.15
724.248962402,7026.875
724.51776123,7010.1
724.786560059,7051.725
725.055358887,7048.65
725.324035645,7023.35
725.592834473,7040.975
725.86151123,7023.3
726.130187988,7052.0
726.398803711,7028.575
726.667419434,7045.35
726.935974121,7068.125
727.204528809,7019.925
727.473083496,7047.425
727.741638184,7032.825
728.010070801,6994.775
728.278564453,7027.5
728.546936035,7015.075
728.815368652,6984.625
729.08380127,6925.35
729.352111816,6926.6
729.620361328,6844.325
729.88873291,6880.35
730.156982422,6944.575
730.425231934,6943.95
730.693481445,6967.975
730.961669922,7011.525
731.229797363,7039.2
731.49798584,7095.2
731.766113281,7105.7
732.034118652,7170.55
732.302246094,7197.75
732.570251465,7222.95
732.838256836,7255.525
733.106262207,7341.9
733.374145508,7364.975
733.642089844,7425.15
733.909973145,7440.5
734.177856445,7543.125
734.445678711,7590.95
734.713562012,7712.2
734.981323242,7718.55
735.249084473,7773.325
735.516845703,7904.9
735.784545898,7948.2
736.052185059,7990.875
736.319885254,8066.175
736.587524414,8131.425
736.855102539,8178.45
737.122619629,8290.8
737.390197754,8301.475
737.657714844,8385.025
737.925170898,8434.65
738.192749023,8544.25
738.460144043,8617.05
738.727539062,8663.375
738.994995117,8776.25
739.262329102,8874.425
739.529663086,8931.225
739.79699707,8992.1
740.06427002,9033.1
740.331481934,9092.35
740.598754883,9149.4
740.865905762,9184.875
741.133056641,9337.725
741.40032959,9348.9
741.667358398,9425.8
741.934448242,9456.85
742.201599121,9467.975
742.468566895,9595.725
742.735534668,9629.075
743.002563477,9636.325
743.26953125,9616.7
743.536437988,9729.625
743.803405762,9808.5
744.0703125,9776.825
744.337097168,9902.125
744.604003906,9803.225
744.870727539,9905.55
745.137512207,9953.175
745.40423584,9970.1
745.670959473,9951.85
745.93762207,10038.075
746.204284668,10006.375
746.470947266,10051.35
746.737548828,10070.975
747.004089355,10095.225
747.270751953,10125.5
747.53717041,10136.425
747.803710938,10100.625
748.070251465,10104.525
748.336608887,10117.175
748.603027344,10086.075
748.869445801,10104.15
749.135803223,10096.725
749.402099609,10106.0
749.668457031,10149.425
749.934753418,10141.825
750.20098877,10111.85
750.467224121,10150.925
750.733459473,10106.075
750.999572754,10118.95
751.26574707,10040.775
751.531860352,10099.9
751.797912598,10045.95
752.064025879,10020.825
752.330078125,10035.8
752.596069336,10026.4
752.862060547,9970.85
753.127990723,10016.6
753.393920898,9970.25
753.659912109,9993.25
753.925720215,10030.425
754.19152832,9991.6
754.457397461,9965.85
754.723144531,9929.925
754.988952637,9893.5
755.254699707,9944.175
755.520385742,9966.475
755.786071777,9966.15
756.051696777,9924.4
756.317382812,9879.35
756.582946777,9844.6
756.848510742,9883.6
757.114074707,9848.95
757.379577637,9866.575
757.645080566,9911.45
757.910583496,9897.9
758.175964355,9811.75
758.441345215,9820.45
758.706848145,9678.325
758.972106934,9685.2
759.237426758,9688.55
759.502807617,9747.55
759.768005371,9753.725
760.03326416,9726.6
760.298522949,9664.25
760.563659668,9706.35
760.828857422,9705.15
761.093994141,9694.625
761.359130859,9638.6
761.624206543,9628.75
761.889282227,9597.775
762.15423584,9592.375
762.419250488,9620.55
762.684265137,9564.15
762.949157715,9552.75
763.214050293,9567.875
763.479003906,9567.35
763.743835449,9544.55
764.008666992,9547.425
764.2734375,9545.75
764.538208008,9548.025
764.802978516,9585.0
765.067687988,9549.05
765.332397461,9536.425
765.597045898,9493.025
765.861694336,9516.95
766.126342773,9479.0
766.390930176,9450.325
766.655395508,9412.35
766.920043945,9370.175
767.184509277,9423.35
767.448974609,9448.5
767.713439941,9412.05
767.977783203,9389.025
768.2421875,9415.0
768.506591797,9369.825
768.770874023,9449.975
769.03515625,9444.175
769.299499512,9431.25
769.563720703,9431.2
769.827941895,9366.85
770.092163086,9366.5
770.356323242,9348.725
770.620483398,9439.725
770.88458252,9421.95
771.148681641,9401.55
771.412719727,9399.175
771.676757812,9411.85
771.940734863,9357.225
772.204711914,9364.35
772.468688965,9348.0
772.73260498,9345.825
772.996459961,9339.975
773.260314941,8327.75
773.524169922,1074.825
773.787963867,150.925
774.051696777,122.75
774.315551758,123.475
774.579223633,119.2
774.842895508,123.475
775.106567383,122.875
775.370239258,120.225
775.633789062,122.725
775.897399902,128.75
776.160949707,119.775
776.424499512,122.075
776.687988281,124.1
776.951477051,124.875
777.214904785,118.2
777.47833252,121.3
