191.299911499,101.1
191.603515625,105.775
191.907119751,98.375
192.210693359,104.475
192.514251709,97.825
192.817810059,103.65
193.121368408,103.0
193.42489624,103.575
193.728408813,98.025
194.031936646,100.7
194.33543396,93.575
194.638916016,109.875
194.94241333,97.35
195.245880127,96.375
195.549331665,97.7
195.852767944,99.75
196.156204224,196.35
196.459625244,190.225
196.763015747,196.1
197.066436768,200.375
197.369812012,192.05
197.673187256,193.35
197.9765625,189.8
198.279922485,193.4
198.583251953,186.5
198.886581421,192.325
199.18989563,199.8
199.493209839,197.325
199.79649353,189.725
200.09979248,199.85
200.403076172,190.725
200.706314087,198.45
201.009567261,190.6
201.312820435,193.85
201.616027832,189.35
201.919235229,179.5
202.222457886,185.475
202.525634766,191.35
202.828826904,181.825
203.132003784,180.525
203.435150146,185.25
203.738296509,188.175
204.041412354,184.475
204.344558716,191.65
204.647659302,188.825
204.950759888,189.45
205.253845215,187.8
205.556930542,182.725
205.859985352,186.45
206.163024902,185.025
206.466079712,190.9
206.769104004,197.7
207.072113037,193.4
207.375137329,189.675
207.678131104,192.65
207.981109619,192.025
208.284088135,186.85
208.587036133,196.7
208.889984131,197.675
209.19291687,197.6
209.495849609,197.325
209.798751831,195.85
210.101654053,194.85
210.404556274,197.2
210.707427979,197.15
211.010269165,208.15
211.31312561,202.9
211.615982056,203.275
211.918807983,202.85
212.221618652,203.6
212.524429321,200.3
212.827224731,210.775
213.130004883,209.325
213.432769775,210.3
213.735534668,207.725
214.038269043,211.775
214.341003418,208.85
214.643737793,215.425
214.946456909,219.975
215.249145508,218.45
215.551834106,223.0
215.854507446,220.0
216.157165527,223.975
216.45980835,218.025
216.762451172,228.75
217.065078735,231.425
217.36769104,230.35
217.670303345,234.55
217.972885132,239.15
218.275466919,243.525
218.578048706,232.75
218.880599976,247.75
219.183120728,249.825
219.485656738,263.125
219.788192749,270.475
220.090682983,292.1
220.393188477,319.85
220.695663452,357.2
220.998138428,385.35
221.300582886,444.7
221.603042603,489.85
221.905487061,562.65
222.207901001,636.425
222.510299683,725.125
222.812728882,835.975
223.115097046,934.275
223.41746521,1056.8
223.719848633,1185.55
224.022171021,1307.275
224.324508667,1464.75
224.626846313,1622.825
224.929168701,1759.475
225.231460571,1918.25
225.533737183,2076.0
225.836013794,2226.45
226.138290405,2379.925
226.440536499,2544.225
226.742767334,2698.275
227.044998169,2829.275
227.347213745,2992.175
227.649429321,3119.95
227.951629639,3264.9
228.253799438,3356.3
228.555953979,3488.55
228.858123779,3600.425
229.160263062,3716.225
229.462371826,3799.675
229.764511108,3918.05
230.066619873,3989.925
230.36869812,4081.875
230.670776367,4170.85
230.972854614,4287.25
231.274902344,4389.575
231.576950073,4507.55
231.878967285,4588.0
232.180999756,4713.875
232.48298645,4815.925
232.784988403,4889.675
233.086975098,5003.275
233.388946533,5083.925
233.69090271,5193.65
233.992858887,5268.65
234.294769287,5284.975
234.596694946,5385.725
234.898605347,5487.375
235.200500488,5498.8
235.502380371,5547.475
235.804244995,5592.575
236.106109619,5582.225
236.407958984,5608.025
236.709777832,5630.7
237.011581421,5670.0
237.313400269,5661.9
237.615203857,5625.525
237.916976929,5657.65
238.21875,5629.95
238.520507812,5652.2
238.822250366,5634.55
239.12399292,5596.225
239.425704956,5590.625
239.727401733,5528.35
240.02911377,5535.1
240.330780029,5481.025
240.632446289,5442.425
240.93409729,5427.4
241.23576355,5366.625
241.537384033,5359.175
241.839004517,5319.025
242.140594482,5287.65
242.442199707,5251.8
242.743774414,5212.725
243.045333862,5149.9
243.346923828,5091.375
243.648452759,5039.575
243.949966431,4964.275
244.251495361,4949.475
244.552993774,4863.35
244.854492188,4757.85
245.155975342,4695.625
245.457443237,4624.2
245.758880615,4540.875
246.060333252,4458.975
246.36177063,4354.8
246.66317749,4265.375
246.964569092,4174.4
247.265945435,4088.425
247.567337036,4025.25
247.86869812,3947.15
248.170059204,3872.55
248.471389771,3806.875
248.772705078,3772.475
249.074035645,3708.225
249.375335693,3654.15
249.676620483,3591.55
249.977890015,3542.575
250.279159546,3536.15
250.58039856,3489.075
250.881637573,3465.5
251.182876587,3445.575
251.484069824,3435.675
251.785263062,3395.9
252.086456299,3394.05
252.387619019,3370.375
252.688781738,3359.3
252.989929199,3343.65
253.291061401,3336.1
253.592178345,3342.725
253.893280029,3329.075
254.194366455,3337.075
254.49546814,3307.6
254.796524048,3259.325
255.097579956,3277.025
255.398620605,3256.025
255.699645996,3265.625
256.000640869,3227.375
256.30166626,3243.275
256.602661133,3213.65
256.903656006,3193.5
257.204589844,3186.525
257.505523682,3161.125
257.80645752,3182.075
258.107391357,3142.55
258.408294678,3131.4
258.709228516,3123.725
259.010070801,3096.55
259.310943604,3099.5
259.611846924,3075.15
259.912658691,3035.225
260.213500977,3027.675
260.514343262,3035.475
260.815124512,3004.425
261.115936279,3009.275
261.416717529,3007.85
261.717468262,2994.7
262.018218994,3005.775
262.318969727,3025.25
262.619689941,3061.8
262.920410156,3106.0
263.221130371,3143.725
263.521789551,3166.325
263.822479248,3226.35
264.123138428,3286.875
264.42376709,3316.175
264.72442627,3348.075
265.025054932,3366.625
265.325622559,3426.25
265.626251221,3454.1
265.926818848,3491.3
266.227386475,3484.975
266.527954102,3510.175
266.828460693,3561.125
267.12902832,3544.225
267.429534912,3555.35
267.730010986,3581.8
268.030517578,3611.775
268.330993652,3626.275
268.631439209,3650.8
268.931915283,3670.3
269.232299805,3699.55
269.532745361,3737.725
269.8331604,3720.025
270.133544922,3770.625
270.433929443,3820.45
270.734313965,3855.2
271.034637451,3919.8
271.334991455,3947.525
271.635314941,4029.4
271.935638428,4067.775
272.235931396,4149.125
272.536254883,4218.675
272.836486816,4322.775
273.136749268,4410.075
273.437011719,4535.075
273.737213135,4647.9
274.037445068,4774.725
274.337677002,4903.475
274.6378479,5030.3
274.938049316,5179.175
275.238220215,5297.65
275.538360596,5433.825
275.838500977,5550.375
276.138641357,5737.325
276.438751221,5836.375
276.738830566,5954.975
277.03894043,6050.425
277.338989258,6232.375
277.639038086,6358.025
277.939056396,6443.025
278.239105225,6539.45
278.539093018,6677.525
278.839141846,6768.35
279.139129639,6857.625
279.439086914,6976.7
279.739044189,7069.25
280.039001465,7217.35
280.338928223,7287.275
280.63885498,7352.6
280.938781738,7473.15
281.238647461,7533.65
281.538513184,7585.45
281.838409424,7646.025
282.138244629,7718.125
282.438079834,7767.75
282.737945557,7855.925
283.037719727,7863.55
283.337524414,7942.45
283.637298584,7990.65
283.937072754,8049.15
284.236816406,8042.6
284.536560059,8079.5
284.836303711,8098.925
285.136016846,8201.2
285.43572998,8236.525
285.735412598,8222.825
286.035064697,8241.275
286.334747314,8327.15
286.634368896,8325.475
286.933990479,8274.175
287.233642578,8238.25
287.533203125,8240.0
287.832824707,8205.425
288.132385254,8123.1
288.431945801,7995.425
288.731506348,7883.875
289.031036377,7701.95
289.330566406,7600.65
289.630065918,7593.325
289.92956543,7556.0
290.229034424,7681.075
290.528503418,7855.2
290.827941895,8033.25
291.127380371,8176.45
291.42678833,8313.675
291.726226807,8472.35
292.025604248,8493.175
292.324981689,8548.1
292.624359131,8563.275
292.923736572,8566.125
293.223052979,8605.9
293.522369385,8630.45
293.821685791,8557.55
294.12097168,8538.875
294.420257568,8494.3
294.719543457,8489.9
295.018768311,8486.675
295.318023682,8423.95
295.617248535,8357.25
295.916442871,8293.625
296.215667725,8200.75
296.514862061,8071.65
296.813995361,7838.025
297.11315918,7629.625
297.412322998,7504.85
297.711425781,7472.125
298.010559082,7630.475
298.309631348,7857.85
298.608734131,8076.925
298.907806396,8263.825
299.206848145,8399.125
299.505889893,8477.4
299.804901123,8630.15
300.103912354,8703.625
300.402954102,8792.475
300.701904297,8858.475
301.00088501,8921.8
301.299835205,8991.7
301.5987854,8999.55
301.897735596,9094.05
302.196624756,9161.85
302.495513916,9253.65
302.794403076,9243.7
303.093292236,9326.45
303.392120361,9383.8
303.690979004,9443.625
303.989837646,9483.8
304.288604736,9564.6
304.587402344,9555.3
304.886199951,9608.95
305.184967041,9646.85
305.483734131,9699.6
305.782501221,9724.275
306.081176758,9739.325
306.37991333,9756.875
306.678619385,9783.65
306.977294922,9803.625
307.275970459,9801.625
307.574645996,9809.425
307.873260498,9779.775
308.171875,9815.525
308.470489502,9801.4
308.769104004,9736.5
309.067687988,9686.05
309.366241455,9739.75
309.664794922,9671.1
309.963348389,9687.5
310.261871338,9676.675
310.560394287,9689.55
310.858856201,9701.7
311.157348633,9756.375
311.455810547,9764.15
311.754272461,9777.35
312.052703857,9844.45
312.351135254,9862.275
312.649536133,9865.625
312.947937012,9833.625
313.246307373,9870.825
313.544647217,9865.9
313.843017578,9788.35
314.141387939,9788.575
314.439697266,9823.8
314.738006592,9729.2
315.036315918,9678.875
315.334564209,9571.275
315.6328125,9522.825
315.931091309,9442.8
316.229309082,9317.55
316.527526855,9168.45
316.825744629,9171.175
317.123901367,9024.5
317.422088623,8955.8
317.720245361,8974.05
318.0184021,9002.4
318.316497803,9037.75
318.614654541,9055.725
318.912750244,9137.925
319.21081543,9145.875
319.50894165,9183.025
319.806945801,9169.4
320.104980469,9153.425
320.403045654,9163.025
320.701049805,9157.0
320.999023438,9120.25
321.297027588,9050.55
321.595001221,9035.9
321.892913818,9010.525
322.190887451,8944.375
322.488830566,8874.975
322.786712646,8825.825
323.084625244,8754.625
323.382507324,8721.925
323.680358887,8631.55
323.978210449,8531.85
324.276062012,8502.425
324.573852539,8407.35
324.871643066,8362.4
325.169464111,8298.475
325.467224121,8229.375
325.764984131,8160.775
326.062744141,8063.85
326.360473633,7972.575
326.658203125,7926.9
326.955871582,7854.5
327.253570557,7776.45
327.551239014,7713.175
327.848907471,7656.125
328.146514893,7574.15
328.444152832,7490.575
328.741790771,7421.325
329.039367676,7389.825
329.336914062,7299.15
329.634521484,7241.3
329.932067871,7214.45
330.229553223,7094.925
330.527160645,7059.675
330.824615479,7008.2
331.12210083,6906.7
331.419586182,6791.75
331.717041016,6734.25
332.014465332,6620.825
332.311920166,6622.475
332.609313965,6522.825
332.906707764,6543.35
333.204101562,6536.475
333.501495361,6523.25
333.798828125,6561.425
334.096160889,6621.475
334.39352417,6680.975
334.690795898,6746.65
334.988098145,6778.2
335.285400391,6861.8
335.582641602,6837.525
335.879882812,6890.175
336.177124023,6904.175
336.474334717,6982.325
336.77154541,6962.025
337.068725586,6983.925
337.365905762,7015.3
337.66305542,7003.475
337.960205078,7054.125
338.257324219,7060.8
338.554443359,7030.475
338.8515625,7060.625
339.148590088,7074.325
339.445648193,7070.875
339.742736816,7008.7
340.039764404,7036.425
340.336761475,6996.725
340.63381958,6907.45
340.930755615,6928.875
341.227722168,6815.975
341.524688721,6730.375
341.821624756,6693.625
342.118560791,6708.525
342.415496826,6804.725
342.712402344,6937.875
343.009246826,7087.85
343.306121826,7209.8
343.602966309,7263.4
343.899810791,7345.975
344.196624756,7449.1
344.493438721,7479.7
344.79019165,7528.3
345.086975098,7577.9
345.383758545,7625.55
345.680480957,7591.975
345.977203369,7618.1
346.273956299,7669.725
346.570617676,7634.1
346.86730957,7643.65
347.163970947,7630.4
347.460601807,7691.4
347.757232666,7704.2
348.053894043,7642.625
348.350463867,7579.2
348.647064209,7581.5
348.943634033,7562.15
349.24017334,7578.25
349.536712646,7483.075
349.833251953,7526.225
350.129760742,7500.275
350.426208496,7500.125
350.722747803,7440.85
351.019195557,7444.8
351.315612793,7376.325
351.612060547,7355.6
351.908508301,7293.4
352.204864502,7201.725
352.501281738,7172.0
352.797637939,7093.675
353.093963623,7024.125
353.390319824,6935.15
353.686645508,6842.675
353.982940674,6760.4
354.27923584,6703.95
354.575531006,6655.425
354.871765137,6665.8
355.167999268,6605.5
355.464233398,6624.025
355.760437012,6629.65
356.056640625,6613.175
356.352813721,6636.275
356.648956299,6600.825
356.945129395,6638.4
357.241271973,6618.325
357.537384033,6658.125
357.833496094,6574.15
358.129577637,6559.55
358.425628662,6536.7
358.721679688,6504.1
359.017730713,6474.35
359.313720703,6412.575
359.609710693,6374.9
359.905761719,6313.4
360.201721191,6279.5
360.497650146,6205.275
360.793609619,6174.75
361.089538574,6094.4
361.385437012,6020.0
361.681365967,5944.75
361.977233887,5901.35
362.273071289,5843.95
362.568908691,5697.125
362.864746094,5595.6
363.160552979,5439.575
363.456359863,5252.825
363.752166748,5105.95
364.047912598,5024.35
364.343658447,4953.55
364.639434814,5013.325
364.935119629,5034.725
365.230834961,5104.25
365.526550293,5138.55
365.822174072,5131.425
366.117858887,5147.65
366.413482666,5180.1
366.709075928,5192.025
367.004730225,5107.075
367.300292969,5106.75
367.595855713,5155.9
367.891448975,5033.575
368.186981201,4927.9
368.482513428,4877.05
368.778015137,4872.1
369.073547363,4794.075
369.36895752,4812.15
369.664428711,4717.425
369.95993042,4582.1
370.255310059,4533.75
370.550720215,4508.075
370.846160889,4473.275
371.14151001,4417.225
371.436859131,4391.875
371.73223877,4361.7
372.027557373,4317.675
372.322875977,4264.6
372.618164062,4214.4
372.913482666,4185.55
373.208709717,4170.8
373.503967285,4094.575
373.799194336,4051.75
374.094421387,4052.575
374.389648438,4022.95
374.684844971,3996.6
374.979980469,4042.0
375.275146484,4065.025
375.570281982,4088.175
375.865386963,4080.15
376.160522461,4001.475
376.455596924,4018.525
376.750640869,4126.55
377.045715332,4111.65
377.340759277,4135.375
377.635772705,4201.925
377.93081665,4226.65
378.225769043,4285.475
378.520751953,4342.6
378.815734863,4303.925
379.110656738,4457.65
379.405548096,4630.675
379.700500488,4456.45
379.995391846,4254.275
380.290252686,4296.55
380.585083008,4389.775
380.879974365,4437.825
381.17477417,4338.15
381.469543457,4294.975
381.764404297,4275.125
382.059143066,4290.775
382.353912354,4396.7
382.648651123,4454.4
382.943389893,4450.5
383.238067627,4269.9
383.532775879,4268.075
383.827484131,4213.7
384.12210083,4208.775
384.416778564,4150.8
384.711425781,4062.65
385.006011963,4096.675
385.300628662,4074.875
385.595184326,4132.425
385.88973999,4217.725
386.184295654,4333.375
386.478820801,4402.875
386.77331543,4483.875
387.067840576,4592.725
387.362335205,4679.25
387.656768799,4754.65
387.951202393,4793.1
388.245635986,4843.95
388.540039062,4933.325
388.834472656,4983.275
389.128875732,4869.075
389.423187256,4659.675
389.717559814,4610.25
390.011871338,4712.525
390.306182861,4739.45
390.600463867,4780.925
390.894775391,4824.325
391.189025879,4845.15
391.48324585,4847.35
391.777526855,4867.125
392.071685791,5081.525
392.365875244,5194.15
392.660064697,5248.9
392.95425415,5570.3
393.248382568,5545.35
393.542510986,5110.35
393.836608887,4916.175
394.130706787,4920.525
394.424804688,4851.325
394.71887207,4993.5
395.012878418,4963.125
395.306915283,4835.075
395.600921631,4800.875
395.894927979,4761.5
396.188903809,4815.975
396.482879639,4811.0
396.776794434,5023.375
397.070739746,4972.775
397.364654541,5003.35
397.658538818,5391.85
397.952423096,5407.225
398.246307373,5379.55
398.540100098,5886.825
398.833953857,5761.45
399.127746582,5284.025
399.421508789,5296.675
399.715301514,5239.0
400.009063721,5137.1
400.30279541,5011.425
400.596496582,4915.675
400.890258789,5079.125
401.183929443,5160.675
401.47756958,5060.45
401.771240234,4820.05
402.064880371,4852.825
402.35848999,4884.975
402.652130127,4775.75
402.945678711,4858.175
403.239257812,4816.275
403.532775879,4759.2
403.82635498,4802.9
404.119842529,4723.225
404.413360596,4710.55
404.706848145,4773.25
405.000274658,4695.275
405.293762207,4781.975
405.587188721,4830.175
405.880584717,4662.45
406.17401123,4510.65
406.467407227,4290.525
406.760742188,4317.95
407.054107666,4356.175
407.347442627,4273.425
407.640716553,4272.05
407.934051514,4337.725
408.227325439,4393.825
408.520568848,4607.7
408.813842773,4723.625
409.107086182,4490.2
409.400238037,4437.85
409.693450928,4372.15
409.986633301,4487.1
410.279754639,4407.675
410.572875977,4120.6
410.86605835,4054.25
411.159118652,4089.1
411.452209473,4090.45
411.745330811,3926.225
412.038360596,3870.725
412.331390381,3914.575
412.624420166,3962.925
412.917388916,3867.0
413.210388184,3693.95
413.503387451,3677.125
413.796295166,3567.1
414.089233398,3393.15
414.382141113,3300.45
414.675048828,3303.6
414.967926025,3316.45
415.260803223,3278.5
415.55368042,3290.825
415.846466064,3270.95
416.139282227,3353.875
416.432098389,3472.95
416.724853516,3471.575
417.017608643,3415.3
417.31036377,3436.2
417.603088379,3555.825
417.895782471,3516.25
418.188476562,3503.675
418.481140137,3575.475
418.773803711,3635.225
419.066436768,3593.55
419.359039307,3675.125
419.651641846,3685.875
419.944244385,3682.05
420.236816406,3630.4
420.529327393,3846.65
420.821899414,3928.425
421.114379883,3874.45
421.406860352,4134.3
421.699371338,4368.95
421.991821289,4317.275
422.284240723,4103.15
422.576721191,3962.425
422.869110107,3835.325
423.161468506,3797.125
423.453857422,3837.325
423.74621582,3715.1
424.038543701,3585.2
424.330871582,3536.0
424.623168945,3482.225
424.915435791,3624.7
425.207702637,3583.325
425.499969482,3526.775
425.792205811,3475.1
426.084411621,3214.3
426.376617432,3299.9
426.668762207,3366.025
426.9609375,3243.575
427.253082275,3363.075
427.545196533,3793.5
427.837310791,3499.2
428.129425049,3225.175
428.421447754,3443.825
428.713531494,3447.6
429.005554199,3425.025
429.297576904,3434.95
429.589599609,3893.875
429.881561279,4219.75
430.173522949,3986.975
430.465484619,3932.225
430.757415771,4019.575
431.049316406,3789.325
431.341186523,3546.95
431.633117676,3429.925
431.924957275,3139.0
432.21673584,3031.25
432.508636475,3175.775
432.800415039,3200.125
433.092163086,3085.175
433.383972168,3070.725
433.675689697,3802.125
433.967437744,4310.225
434.259155273,3329.125
434.550872803,3009.0
434.842498779,3055.525
435.134185791,3187.15
435.425842285,3212.55
435.717437744,3106.925
436.009063721,2935.225
436.30065918,3060.475
436.592224121,3444.975
436.883758545,3226.55
437.175323486,2947.325
437.466827393,2924.35
437.758331299,2954.775
438.049804688,2987.0
438.341247559,3046.675
438.63269043,3129.3
438.924163818,3119.85
439.215515137,3067.725
439.50692749,2966.025
439.798309326,2977.35
440.089660645,2982.4
440.380981445,2896.45
440.672332764,2896.7
440.963623047,3157.775
441.254882812,3631.7
441.546173096,3821.675
441.837402344,3575.85
442.128631592,3379.0
442.41986084,3353.475
442.711029053,3219.375
443.002197266,3296.05
443.293365479,3491.725
443.584503174,3613.05
443.875610352,3586.475
444.166717529,3322.525
444.457794189,3385.125
444.748840332,3371.225
445.039916992,3314.525
445.330932617,3423.2
445.621948242,3251.1
445.912963867,3061.525
446.203918457,3287.8
446.494812012,3550.325
446.785827637,3314.425
447.076721191,3127.55
447.367584229,3117.925
447.658447266,3087.5
447.949371338,3153.075
448.24017334,3012.525
448.530975342,2950.8
448.821838379,3118.3
449.112579346,3201.175
449.40335083,3120.05
449.694152832,3143.5
449.984863281,3165.825
450.27557373,3093.775
450.56628418,3160.6
450.856933594,3167.325
451.147583008,3001.3
451.438262939,2898.8
451.728881836,3118.725
452.019470215,3222.125
452.310089111,2990.25
452.600646973,3017.95
452.891174316,3086.525
453.181732178,2902.25
453.472229004,2767.05
453.762695312,2889.7
454.053222656,2900.725
454.343658447,2772.725
454.634063721,2710.1
454.924530029,2895.35
455.214935303,3045.675
455.505279541,3124.25
455.795715332,2963.25
456.086029053,2761.3
456.376312256,2737.6
456.666687012,2784.725
456.956939697,2876.4
457.247192383,2885.8
457.537445068,2951.475
457.827728271,3154.6
458.117919922,3078.45
458.408081055,3013.075
458.698303223,3187.95
458.988433838,3121.525
459.278564453,2938.45
459.568725586,3236.3
459.858825684,3335.4
460.148864746,3026.375
460.438995361,2990.775
460.729034424,3042.725
461.019042969,3053.95
461.309082031,3248.475
461.599060059,3129.15
461.889007568,2661.7
462.179016113,2487.9
462.468933105,2719.825
462.75881958,2838.5
463.048736572,2564.075
463.338592529,2834.75
463.628448486,3210.25
463.918365479,2913.3
464.2081604,3077.45
464.497924805,3058.2
464.787780762,3177.2
465.077514648,3489.65
465.367218018,3095.175
465.657012939,3323.775
465.946685791,3750.25
466.236358643,3318.675
466.526092529,2752.475
466.815734863,2766.725
467.105316162,2693.125
467.394927979,2723.075
467.684570312,2569.65
467.974121094,2670.875
468.263671875,2777.85
468.553222656,2548.425
468.842773438,2446.575
469.132232666,2338.35
469.42175293,2360.925
469.711212158,2343.475
470.000640869,2206.25
470.290100098,2266.225
470.579498291,2299.95
470.868835449,2308.85
471.158294678,2260.35
471.447601318,2253.95
471.736907959,2309.175
472.026275635,2394.675
472.315551758,2371.0
472.604797363,2366.4
472.894104004,2508.95
473.183319092,2623.475
473.47253418,2608.0
473.761779785,2599.1
474.05090332,2528.875
474.340087891,2477.2
474.629241943,2415.075
474.918365479,2584.875
475.207427979,2886.15
475.496551514,2903.85
475.785614014,2626.6
476.074645996,2400.7
476.363708496,2511.0
476.652679443,2660.55
476.941650391,2475.925
477.230682373,2308.4
477.519622803,2310.025
477.808502197,2476.75
478.097412109,2754.575
478.386352539,2711.525
478.675201416,2433.1
478.964050293,2305.675
479.25289917,2509.775
479.541717529,2574.125
479.830474854,2404.0
480.11932373,2778.2
480.408050537,2970.4
480.696777344,2557.05
480.985534668,2412.325
481.274200439,2520.25
481.562866211,2786.4
481.851593018,2810.225
482.140197754,2739.175
482.428833008,2574.7
482.717468262,2356.45
483.006011963,2396.9
483.294586182,2516.225
483.5831604,2563.7
483.871673584,2426.775
484.16015625,2575.075
484.448699951,2817.125
484.7371521,2882.45
485.02557373,2871.35
485.314025879,2599.55
485.602416992,4014.85
485.890777588,14196.275
486.179199219,12719.375
486.467559814,3420.425
486.755859375,2494.725
487.044219971,2901.25
487.332519531,3103.275
487.620758057,2654.9
487.908966064,2401.8
488.197265625,2153.1
488.485473633,2051.875
488.773651123,2190.2
489.061859131,2185.425
489.350006104,2138.225
489.638122559,2065.125
489.926300049,2090.75
490.214355469,2045.725
490.502441406,1990.9
490.790527344,1909.725
491.078552246,2103.225
491.366546631,2111.925
491.654602051,1861.625
491.942565918,1957.25
492.230499268,2004.225
492.518493652,1954.125
492.806396484,1999.125
493.094268799,1906.55
493.382202148,1937.575
493.670074463,2080.35
493.957885742,1899.625
494.245727539,1912.1
494.533508301,2092.375
494.821289062,1972.725
495.109100342,1801.3
495.396850586,1754.725
495.684539795,1693.05
495.972290039,1931.625
496.25994873,2303.675
496.547607422,2305.05
496.835296631,2120.175
497.122894287,1767.825
497.410522461,1677.3
497.6980896,1690.175
497.985687256,1653.7
498.273223877,1766.075
498.560760498,1834.9
498.848266602,1870.05
499.135772705,1824.025
499.423217773,1869.725
499.710693359,1996.5
499.998138428,1922.325
500.285522461,1751.775
500.572937012,1660.975
500.860290527,1726.775
501.147644043,1834.05
501.434997559,2070.45
501.722290039,1948.3
502.00958252,1685.825
502.296875,1980.075
502.584106445,1953.4
502.871337891,1763.95
503.158599854,1846.7
503.445770264,1932.1
503.732910156,1900.4
504.020141602,1701.65
504.307220459,1689.775
504.594329834,1721.575
504.881469727,1641.175
505.168518066,1728.4
505.455535889,1812.95
505.742614746,1676.725
506.029632568,1600.85
506.316589355,1812.9
506.603637695,1889.2
506.890563965,1692.425
507.177459717,1511.5
507.464385986,1412.275
507.751312256,1664.875
508.038146973,1749.775
508.325012207,1601.925
508.611877441,1660.725
508.898681641,1663.05
509.185424805,1491.425
509.472259521,1452.625
509.759002686,1550.55
510.045715332,1578.15
510.332458496,1517.05
510.619140625,1584.625
510.905761719,1497.325
511.192504883,1485.675
511.479095459,1532.875
511.765686035,1481.725
512.052307129,1386.85
512.338928223,1321.8
512.625427246,1391.15
512.91204834,1460.175
513.198486328,1442.225
513.484985352,1395.4
513.77142334,1316.975
514.057922363,1362.2
514.344299316,1362.225
514.63079834,1311.65
514.917175293,1306.4
515.203552246,1200.775
515.489868164,1171.9
515.776245117,1295.0
516.0625,1350.8
516.348815918,1254.425
516.635070801,1288.675
516.921325684,1355.825
517.207580566,1283.975
517.493774414,1168.475
517.779968262,1191.75
518.066101074,1233.2
518.352294922,1180.475
518.638366699,1187.575
518.924499512,1267.875
519.210632324,1360.475
519.496643066,1310.825
519.782714844,1200.85
520.068786621,1168.45
520.354736328,1124.725
520.640686035,1081.725
520.926757812,1135.425
521.212646484,1211.3
521.498535156,1216.7
521.784484863,1155.7
522.0703125,1087.8
522.356262207,1111.475
522.642089844,1185.825
522.927856445,1186.375
523.213684082,1177.375
523.499511719,1176.65
523.78527832,1212.85
524.070983887,1272.475
524.356750488,1243.025
524.64239502,1203.8
524.928039551,1195.375
525.213806152,1219.425
525.499389648,1200.0
525.784973145,1220.25
526.070617676,1281.875
526.356140137,1232.275
526.641723633,1247.35
526.927307129,1303.925
527.212768555,1323.875
527.498291016,1295.375
527.783752441,1298.275
528.069213867,1270.875
528.354675293,1301.0
528.640014648,1476.475
528.925476074,1553.225
529.21081543,1472.325
529.496154785,1443.4
529.781555176,1394.025
530.066833496,1418.625
530.352050781,1443.55
530.637390137,1431.875
530.922607422,1423.65
531.207824707,1423.0
531.493041992,1411.8
531.778198242,1473.85
532.063354492,1450.275
532.348571777,1394.95
532.633666992,1417.175
532.918762207,1511.05
533.203857422,1598.5
533.488891602,1624.25
533.773925781,1571.775
534.059020996,1537.35
534.343933105,1571.25
534.628967285,1540.775
534.91394043,1559.4
535.198852539,1575.9
535.483703613,1539.725
535.768676758,1487.225
536.053527832,1482.45
536.338317871,1445.75
536.62322998,1368.7
536.90802002,1348.5
537.192810059,1381.675
537.477539062,1459.35
537.762329102,1497.325
538.047058105,1547.55
538.331726074,1571.275
538.616455078,1571.05
538.901123047,1534.075
539.18572998,1598.375
539.470397949,1590.15
539.755004883,1580.025
540.039550781,1541.875
540.32409668,1494.7
540.608703613,1535.9
540.893188477,1638.1
541.17767334,1652.0
541.462158203,1649.9
541.746643066,1602.3
542.031066895,1641.775
542.315429688,1693.95
542.59979248,1681.675
542.884216309,1667.775
543.168579102,1658.8
543.452941895,1669.925
543.737243652,1733.5
544.021484375,1783.825
544.305725098,1758.425
544.590026855,1745.525
544.874267578,1756.075
545.158447266,1836.325
545.442626953,1737.25
545.726806641,1622.7
546.010925293,1655.95
546.29510498,1690.65
546.579162598,1682.8
546.863220215,1723.775
547.147277832,1810.875
547.431335449,1893.25
547.715332031,1944.3
547.999328613,2072.4
548.283325195,2079.375
548.567260742,1917.1
548.851135254,1894.275
549.135070801,1836.3
549.419006348,1752.25
549.702819824,1855.5
549.986755371,1945.825
550.270507812,1902.375
550.554321289,1944.15
550.83807373,1964.525
551.121826172,1912.0
551.405517578,1927.4
551.689331055,2056.225
551.973022461,2312.325
552.256652832,2373.375
552.540344238,2264.85
552.823974609,2239.05
553.107543945,2218.625
553.391174316,2287.875
553.674743652,2328.55
553.958251953,2339.575
554.241821289,2357.075
554.525268555,2306.475
554.808776855,2276.6
555.092285156,2514.175
555.375671387,2585.975
555.659057617,2581.3
555.942504883,2614.825
556.225891113,2639.125
556.509216309,2615.825
556.792541504,2517.95
557.075866699,2583.65
557.359130859,2623.325
557.64239502,2621.9
557.92565918,2709.4
558.208862305,2693.425
558.49206543,2607.575
558.77532959,2642.275
559.058410645,2680.575
559.341552734,2667.9
559.624694824,2737.625
559.907775879,2801.1
560.190856934,2933.55
560.473937988,2932.15
560.756896973,2956.775
561.039978027,3006.875
561.322937012,2946.75
561.605895996,2949.6
561.88885498,2915.55
562.171813965,2921.8
562.454650879,2905.3
562.737548828,2945.875
563.020446777,3012.625
563.303283691,3041.375
563.58605957,3077.5
563.868896484,3091.85
564.151672363,3144.7
564.434387207,3190.05
564.717163086,3153.775
564.99987793,3199.725
565.282531738,3268.5
565.565185547,3194.775
565.847839355,3196.55
566.130432129,3326.675
566.413085938,3299.1
566.695678711,3304.275
566.978149414,3445.425
567.260681152,3609.225
567.543273926,3676.9
567.825744629,3565.675
568.108154297,3608.025
568.390686035,3731.55
568.673095703,3872.5
568.955505371,3920.475
569.237854004,3949.375
569.520202637,4226.125
569.802490234,4491.875
570.084838867,4464.875
570.367126465,4271.225
570.649414062,4290.8
570.93170166,4660.675
571.213928223,4736.425
571.496154785,4477.35
571.778381348,4714.45
572.06048584,5002.525
572.342590332,4511.625
572.624755859,4139.825
572.906860352,4173.625
573.188903809,4939.15
573.470947266,5191.575
573.752990723,4931.525
574.03503418,5053.9
574.317016602,5448.9
574.598937988,5226.6
574.88092041,5087.625
575.162841797,5284.75
575.444763184,4902.475
575.726623535,4607.475
576.008483887,4665.15
576.290344238,5093.7
576.572143555,5312.15
576.853881836,5374.625
577.135681152,5268.85
577.417419434,5338.75
577.699157715,6268.2
577.980895996,6434.625
578.262573242,5741.6
578.544128418,5205.425
578.825866699,5138.775
579.107421875,4826.85
579.388977051,5010.825
579.670593262,5408.2
579.952148438,5255.5
580.233642578,5347.9
580.515197754,5479.725
580.796691895,5155.775
581.078125,5342.125
581.359619141,6931.65
581.640991211,7043.125
581.922363281,6078.55
582.203796387,6148.85
582.485107422,5725.025
582.766418457,5329.075
583.047790527,5143.725
583.329040527,5051.1
583.610290527,4906.15
583.891540527,5012.775
584.172790527,5357.225
584.453918457,5363.5
584.735107422,5432.125
585.016235352,5886.5
585.297363281,5870.95
585.578552246,5646.3
585.859619141,5575.575
586.140625,5353.7
586.421630859,5191.625
586.702697754,5236.925
586.983642578,5489.225
587.264648438,5678.125
587.545654297,5587.425
587.826477051,5539.45
588.107421875,5335.375
588.388305664,5376.1
588.669189453,5469.95
588.950012207,5323.725
589.230834961,5195.175
589.511657715,5293.375
589.792358398,5393.025
590.073120117,5405.9
590.353881836,5354.175
590.63458252,5374.2
590.915283203,5366.35
591.195922852,5324.125
591.4765625,5381.8
591.757202148,5410.825
592.037780762,5404.575
592.31829834,5404.75
592.598937988,5614.975
592.879394531,5795.7
593.159912109,5704.775
593.440429688,5656.35
593.720825195,5624.1
594.001281738,5602.975
594.281677246,5496.0
594.562072754,5524.325
594.842407227,5648.35
595.122802734,5664.25
595.403137207,5645.475
595.683410645,5606.675
595.963623047,5624.95
596.243896484,5550.425
596.524169922,5557.6
596.804382324,5556.025
597.084533691,5608.75
597.364746094,5639.3
597.644836426,5659.4
597.924987793,5617.425
598.205078125,5586.2
598.485107422,5618.35
598.765197754,5731.25
599.045227051,5799.125
599.325195312,5702.325
599.605224609,5645.625
599.885192871,5698.95
600.165100098,5729.7
600.445007324,5704.75
600.724914551,5704.375
601.004760742,5701.075
601.284667969,5744.7
601.56451416,5679.35
601.844238281,5685.925
602.124084473,5674.95
602.403808594,5689.4
602.683532715,5737.825
602.963256836,5696.375
603.242919922,5755.625
603.522583008,5792.1
603.802246094,5758.275
604.081848145,5715.675
604.36138916,5714.25
604.641052246,5751.1
604.920532227,5725.675
605.200073242,5748.175
605.479614258,5775.425
605.759094238,5789.425
606.038574219,5789.675
606.317932129,5711.375
606.597412109,5718.275
606.87677002,5710.775
607.15612793,5764.425
607.435546875,5760.25
607.714782715,5791.425
607.99407959,5732.95
608.273376465,5736.65
608.552612305,5742.9
608.831848145,5764.15
609.111083984,5753.425
609.390258789,5737.525
609.669433594,5724.575
609.948608398,5800.7
610.227722168,5783.6
610.506713867,5719.65
610.785888672,5733.475
611.064880371,5741.25
611.34387207,5726.375
611.622924805,5758.625
611.901916504,5731.25
612.180847168,5700.35
612.459777832,5696.0
612.738647461,5676.6
613.01751709,5673.5
613.296447754,5598.8
613.575317383,5577.525
613.854064941,5507.1
614.132873535,5421.675
614.411621094,5383.55
614.690368652,5345.925
614.969177246,5289.6
615.247802734,5200.725
615.526489258,5166.175
615.805175781,5063.125
616.08380127,4947.175
616.362365723,4861.125
616.640991211,4807.525
616.919555664,4753.325
617.198059082,4856.35
617.4765625,5128.425
617.755126953,5301.1
618.033569336,5300.2
618.311950684,5319.925
618.590454102,5311.325
618.868774414,5265.5
619.147155762,5285.2
619.425598145,5289.55
619.703857422,5299.775
619.982177734,5290.0
620.260498047,5294.525
620.538757324,5256.575
620.816955566,5231.675
621.095214844,5184.325
621.373413086,5211.675
621.651550293,5274.55
621.929748535,5293.125
622.207824707,5290.05
622.485900879,5288.05
622.764038086,5297.6
623.042053223,5330.1
623.320007324,5352.175
623.598083496,5358.65
623.876037598,5333.325
624.153991699,5367.7
624.432006836,5373.2
624.709838867,5390.675
624.987731934,5349.45
625.265563965,5384.275
625.543395996,5369.575
625.821228027,5422.625
626.098999023,5406.8
626.376831055,5483.275
626.654541016,5509.25
626.932250977,5529.875
627.209960938,5599.85
627.487670898,5594.9
627.765319824,5611.875
628.04296875,5604.8
628.320495605,5628.425
628.598083496,5607.95
628.875671387,5664.225
629.153259277,5704.95
629.430725098,5719.525
629.708251953,5736.8
629.985656738,5743.425
630.263122559,5771.875
630.540588379,5810.8
630.817932129,5812.15
631.095275879,5852.7
631.372680664,5912.075
631.649963379,5963.35
631.927246094,5989.175
632.204589844,6038.575
632.481811523,6081.3
632.759033203,6158.675
633.036254883,6172.125
633.313415527,6268.975
633.590576172,6303.45
633.867736816,6438.8
634.144836426,6480.05
634.421875,6516.375
634.698913574,6579.175
634.976013184,6648.075
635.252990723,6711.625
635.529968262,6743.875
635.807006836,6837.625
636.08392334,6793.075
636.360839844,6700.8
636.637756348,6604.55
636.914611816,6570.625
637.191467285,6535.075
637.468261719,6638.225
637.745056152,6573.35
638.021789551,6613.775
638.298583984,6627.75
638.575317383,6671.25
638.851989746,6691.35
639.12878418,6679.0
639.405395508,6663.175
639.682006836,6708.425
639.958618164,6700.775
640.235229492,6711.675
640.511779785,6765.225
640.788330078,6719.125
641.064880371,6733.575
641.341308594,6693.55
641.617797852,6721.65
641.894226074,6727.95
642.170654297,6751.9
642.44708252,6741.325
642.723388672,6737.725
642.999755859,6725.1
643.276123047,6720.625
643.552429199,6691.925
643.828674316,6679.125
644.104919434,6674.45
644.381164551,6680.125
644.657348633,6696.2
644.933532715,6646.425
645.209716797,6700.65
645.485839844,6654.975
645.761901855,6672.225
646.038024902,6668.225
646.314086914,6684.75
646.590087891,6674.7
646.866149902,6694.35
647.142150879,6652.25
647.41809082,6643.125
647.694030762,6636.075
647.969970703,6627.175
648.245788574,6654.0
648.521728516,6646.875
648.797546387,6604.525
649.073303223,6630.1
649.349182129,6609.0
649.624938965,6601.2
649.900634766,6624.775
650.176391602,6606.675
650.452087402,6599.9
650.727783203,6624.925
651.003479004,6636.075
651.279052734,6605.675
651.554626465,6567.875
651.83026123,6580.05
652.105773926,6617.575
652.381286621,6579.025
652.656860352,6585.075
652.932312012,6600.375
653.207763672,6602.9
653.483215332,6630.725
653.758605957,6618.125
654.033935547,6628.875
654.309326172,6625.675
654.584716797,6660.0
654.859985352,6643.0
655.135253906,6678.0
655.410583496,6677.275
655.685791016,7711.575
655.9609375,12001.375
656.236206055,11721.075
656.511291504,7771.95
656.786437988,6842.75
657.061645508,6712.1
657.336669922,6716.325
657.611694336,6735.6
657.886779785,6770.475
658.161804199,6780.85
658.436828613,6739.45
658.711791992,6773.775
658.986755371,6763.9
659.261657715,6752.375
659.536621094,6781.15
659.811401367,6806.85
660.086303711,6821.125
660.36114502,6816.5
660.635864258,6815.975
660.910644531,6851.625
661.185424805,6824.925
661.460205078,6888.375
661.734863281,6869.925
662.009521484,6886.225
662.284179688,6894.75
662.558776855,6915.175
662.833435059,6959.975
663.108032227,6970.575
663.382568359,6961.925
663.657043457,7013.55
663.93157959,7036.375
664.206054688,7006.125
664.48046875,7045.85
664.755004883,7045.7
665.02935791,7098.1
665.303710938,7100.275
665.578125,7127.075
665.852416992,7122.45
666.126708984,7143.35
666.401062012,7134.9
666.675292969,7202.475
666.949462891,7187.65
667.223754883,7191.925
667.497924805,7237.25
667.772094727,7229.1
668.046264648,7220.2
668.3203125,7285.975
668.594421387,7270.0
668.868469238,7321.15
669.14251709,7326.425
669.416503906,7357.45
669.690551758,7322.225
669.964477539,7373.5
670.23840332,7357.1
670.512329102,7364.15
670.786254883,7344.525
671.060058594,7432.075
671.333984375,7402.925
671.607788086,7429.025
671.881530762,7465.05
672.155334473,7500.275
672.429077148,7542.125
672.702758789,7537.825
672.97644043,7486.15
673.25012207,7502.525
673.523742676,7480.225
673.797302246,7533.9
674.070922852,7555.975
674.344482422,7608.575
674.618041992,7584.15
674.891601562,7578.5
675.165100098,7595.15
675.438476562,7604.8
675.711975098,7616.775
675.985412598,7621.725
676.258789062,7607.7
676.532165527,7633.125
676.805480957,7643.475
677.078796387,7665.975
677.352111816,7676.275
677.625366211,7688.2
677.898620605,7645.975
678.171875,7717.25
678.445007324,7715.8
678.718200684,7743.175
678.991394043,7720.625
679.264404297,7711.6
679.537536621,7754.0
679.81060791,7770.15
680.083679199,7773.7
680.356689453,7781.4
680.629699707,7808.05
680.902648926,7784.825
681.175598145,7877.325
681.448547363,7885.65
681.721435547,7849.075
681.99420166,7859.775
682.267150879,7831.3
682.539916992,7918.4
682.812744141,7897.2
683.085510254,7862.025
683.358215332,7906.15
683.63092041,7894.625
683.903625488,7909.65
684.176330566,7869.725
684.448913574,7856.45
684.721557617,7893.4
684.99420166,7938.475
685.266662598,7953.65
685.539245605,7967.975
685.811767578,8011.975
686.084289551,7999.8
686.356689453,8036.4
686.629150391,8056.1
686.901550293,8079.125
687.17401123,8072.825
687.446350098,8123.85
687.718688965,8143.95
687.990966797,8190.9
688.263305664,8168.9
688.535522461,8143.025
688.807739258,8160.175
689.079956055,8209.575
689.352172852,8215.45
689.624328613,8198.575
689.896484375,8247.725
690.168518066,8235.475
690.440612793,8267.275
690.71270752,8288.35
690.984741211,8303.15
691.256713867,8330.95
691.528747559,8314.525
691.800720215,8358.75
692.072631836,8366.4
692.344543457,8390.675
692.616394043,8395.925
692.888244629,8405.875
693.160095215,8415.675
693.431945801,8473.45
693.703674316,8435.525
693.975463867,8442.725
694.247131348,8497.0
694.518859863,8456.475
694.790588379,8519.125
695.062255859,8518.075
695.33380127,8495.475
695.60546875,8514.0
695.87701416,8523.75
696.148498535,8597.625
696.42010498,8597.6
696.691589355,8605.075
696.96307373,8618.425
697.234558105,8656.575
697.50592041,8654.225
697.777282715,8693.95
698.048706055,8666.45
698.320068359,8732.65
698.591308594,8709.375
698.862670898,8709.825
699.133972168,8762.75
699.405151367,8741.175
699.676391602,8796.15
699.947570801,8778.4
700.21875,8776.5
700.489868164,8801.1
700.761047363,8791.45
701.032104492,8851.825
701.303100586,8812.45
701.57421875,8907.825
701.845214844,8873.625
702.116149902,8906.2
702.387207031,8883.55
702.65814209,8906.725
702.928955078,8932.55
703.199951172,8879.825
703.47076416,8863.65
703.741577148,8885.725
704.012451172,8927.225
704.28314209,8924.575
704.553955078,8908.375
704.824707031,8987.125
705.095397949,9004.2
705.366027832,8972.5
705.63671875,9037.775
705.907348633,8992.15
706.17791748,9010.225
706.448486328,9048.2
706.719055176,9084.4
706.989562988,9081.425
707.260131836,9099.05
707.530517578,9148.025
707.800964355,9113.05
708.071411133,9085.1
708.341796875,9122.325
708.612182617,9104.9
708.882446289,9085.2
709.152893066,9096.875
709.423156738,9118.125
709.693359375,9081.625
709.963623047,9124.55
710.233825684,9131.225
710.503967285,9108.65
710.774169922,9131.3
711.044311523,9109.425
711.31439209,9121.125
711.584533691,9187.6
711.854553223,9177.7
712.124572754,9166.225
712.39465332,9140.925
712.664611816,9187.25
712.934509277,9234.65
713.204467773,9187.2
713.474365234,9209.175
713.74420166,9207.325
714.014099121,9195.25
714.283874512,9232.15
714.553710938,9240.4
714.823486328,9269.75
715.093200684,9222.75
715.362915039,9264.625
715.632629395,9251.875
715.902282715,9201.575
716.171875,9185.45
716.441589355,9221.825
716.711181641,9192.8
716.980712891,9209.95
717.250244141,9220.475
717.519775391,9236.6
717.78918457,9226.675
718.058654785,9316.9
718.328125,9325.375
718.597473145,9250.4
718.866882324,9280.525
719.136230469,9273.225
719.405578613,9330.825
719.674865723,9348.975
719.944152832,9341.1
720.213439941,9281.075
720.48260498,9333.925
720.75177002,9325.6
721.020996094,9322.55
721.290100098,9333.825
721.559204102,9306.275
721.828308105,9337.825
722.097351074,9341.725
722.366455078,9307.8
722.635437012,9302.725
722.904418945,9259.1
723.173400879,9337.4
723.442321777,9351.85
723.711181641,9300.125
723.980102539,9341.375
724.248962402,9324.425
724.51776123,9314.625
724.786560059,9361.175
725.055358887,9361.25
725.324035645,9347.675
725.592834473,9338.0
725.86151123,9357.525
726.130187988,9327.2
726.398803711,9321.2
726.667419434,9358.35
726.935974121,9302.975
727.204528809,9269.65
727.473083496,9301.475
727.741638184,9274.475
728.010070801,9217.0
728.278564453,9215.975
728.546936035,9234.45
728.815368652,9198.625
729.08380127,9108.6
729.352111816,9057.775
729.620361328,8982.525
729.88873291,9070.725
730.156982422,9082.125
730.425231934,9098.05
730.693481445,9128.0
730.961669922,9173.925
731.229797363,9183.9
731.49798584,9237.675
731.766113281,9293.775
732.034118652,9362.575
732.302246094,9402.45
732.570251465,9426.175
732.838256836,9460.275
733.106262207,9557.65
733.374145508,9586.775
733.642089844,9651.4
733.909973145,9688.4
734.177856445,9804.9
734.445678711,9880.975
734.713562012,9989.425
734.981323242,9997.525
735.249084473,10043.975
735.516845703,10193.95
735.784545898,10275.325
736.052185059,10308.3
736.319885254,10406.475
736.587524414,10467.725
736.855102539,10497.9
737.122619629,10653.8
737.390197754,10696.875
737.657714844,10775.35
737.925170898,10826.925
738.192749023,10962.925
738.460144043,11016.85
738.727539062,11053.2
738.994995117,11171.8
739.262329102,11274.4
739.529663086,11395.875
739.79699707,11425.45
740.06427002,11496.075
740.331481934,11599.775
740.598754883,11632.475
740.865905762,11679.375
741.133056641,11851.75
741.40032959,11825.225
741.667358398,11921.0
741.934448242,11965.625
742.201599121,11988.325
742.468566895,12099.7
742.735534668,12119.95
743.002563477,12158.125
743.26953125,12153.9
743.536437988,12208.6
743.803405762,12337.825
744.0703125,12282.1
744.337097168,12402.85
744.604003906,12337.825
744.870727539,12407.075
745.137512207,12482.4
745.40423584,12489.175
745.670959473,12473.9
745.93762207,12487.825
746.204284668,12509.75
746.470947266,12537.875
746.737548828,12521.7
747.004089355,12571.875
747.270751953,12574.9
747.53717041,12604.925
747.803710938,12520.775
748.070251465,12513.35
748.336608887,12525.1
748.603027344,12492.525
748.869445801,12484.55
749.135803223,12471.45
749.402099609,12494.05
749.668457031,12500.75
749.934753418,12470.7
750.20098877,12422.8
750.467224121,12479.15
750.733459473,12428.025
750.999572754,12392.4
751.26574707,12310.05
751.531860352,12370.375
751.797912598,12330.575
752.064025879,12246.475
752.330078125,12257.675
752.596069336,12230.725
752.862060547,12207.325
753.127990723,12248.075
753.393920898,12214.125
753.659912109,12173.8
753.925720215,12224.4
754.19152832,12167.075
754.457397461,12073.35
754.723144531,12074.8
754.988952637,12022.3
755.254699707,12063.025
755.520385742,12062.05
755.786071777,12052.4
756.051696777,12007.0
756.317382812,11956.85
756.582946777,11911.625
756.848510742,11957.75
757.114074707,11896.15
757.379577637,11860.85
757.645080566,11949.475
757.910583496,11887.125
758.175964355,11829.85
758.441345215,11813.4
758.706848145,11650.2
758.972106934,11664.8
759.237426758,11699.9
759.502807617,11713.775
759.768005371,11679.625
760.03326416,11646.2
760.298522949,11575.9
760.563659668,11605.1
760.828857422,11588.375
761.093994141,11599.975
761.359130859,11507.8
761.624206543,11464.65
761.889282227,11454.475
762.15423584,11459.3
762.419250488,11447.275
762.684265137,11400.95
762.949157715,11370.05
763.214050293,11350.375
763.479003906,11360.075
763.743835449,11329.675
764.008666992,11285.9
764.2734375,11271.275
764.538208008,11305.125
764.802978516,11344.85
765.067687988,11321.95
765.332397461,11302.475
765.597045898,11266.325
765.861694336,11241.55
766.126342773,11169.725
766.390930176,11158.075
766.655395508,11106.575
766.920043945,11052.875
767.184509277,11068.3
767.448974609,11084.325
767.713439941,11051.2
767.977783203,11029.25
768.2421875,11043.325
768.506591797,10981.625
768.770874023,11076.1
769.03515625,11038.5
769.299499512,11036.575
769.563720703,11020.175
769.827941895,10955.825
770.092163086,10936.5
770.356323242,10929.7
770.620483398,10944.6
770.88458252,10956.725
771.148681641,10950.45
771.412719727,10926.825
771.676757812,10934.35
771.940734863,10859.3
772.204711914,10858.9
772.468688965,10835.775
772.73260498,10795.3
772.996459961,10820.725
773.260314941,9643.9
773.524169922,1234.075
773.787963867,154.25
774.051696777,124.9
774.315551758,117.575
774.579223633,121.7
774.842895508,121.425
775.106567383,120.05
775.370239258,116.825
775.633789062,121.175
775.897399902,125.075
776.160949707,117.125
776.424499512,119.375
776.687988281,123.125
776.951477051,124.05
777.214904785,120.375
777.47833252,122.825
