191.299911499,100.1
191.603515625,102.225
191.907119751,98.65
192.210693359,104.2
192.514251709,97.225
192.817810059,104.95
193.121368408,104.975
193.42489624,105.5
193.728408813,98.725
194.031936646,100.45
194.33543396,92.125
194.638916016,112.5
194.94241333,97.7
195.245880127,96.9
195.549331665,95.65
195.852767944,100.35
196.156204224,176.8
196.459625244,168.25
196.763015747,170.35
197.066436768,179.2
197.369812012,169.1
197.673187256,172.5
197.9765625,167.825
198.279922485,169.775
198.583251953,162.1
198.886581421,171.05
199.18989563,178.9
199.493209839,169.95
199.79649353,167.875
200.09979248,175.225
200.403076172,167.425
200.706314087,170.625
201.009567261,171.875
201.312820435,174.425
201.616027832,164.95
201.919235229,157.175
202.222457886,167.2
202.525634766,168.75
202.828826904,163.2
203.132003784,162.2
203.435150146,166.7
203.738296509,165.65
204.041412354,163.6
204.344558716,170.65
204.647659302,168.575
204.950759888,172.475
205.253845215,167.95
205.556930542,165.125
205.859985352,165.725
206.163024902,164.6
206.466079712,164.425
206.769104004,172.025
207.072113037,166.375
207.375137329,165.1
207.678131104,166.0
207.981109619,166.5
208.284088135,161.975
208.587036133,170.0
208.889984131,163.825
209.19291687,171.5
209.495849609,168.575
209.798751831,168.3
210.101654053,168.5
210.404556274,168.9
210.707427979,168.6
211.010269165,175.6
211.31312561,173.075
211.615982056,164.775
211.918807983,172.5
212.221618652,172.65
212.524429321,162.35
212.827224731,171.6
213.130004883,170.95
213.432769775,171.6
213.735534668,170.225
214.038269043,171.625
214.341003418,171.175
214.643737793,173.775
214.946456909,175.775
215.249145508,173.35
215.551834106,177.825
215.854507446,177.625
216.157165527,173.975
216.45980835,174.925
216.762451172,177.65
217.065078735,177.875
217.36769104,178.2
217.670303345,178.3
217.972885132,183.025
218.275466919,181.275
218.578048706,176.4
218.880599976,188.225
219.183120728,182.975
219.485656738,186.1
219.788192749,198.75
220.090682983,206.85
220.393188477,215.625
220.695663452,240.375
220.998138428,253.525
221.300582886,280.95
221.603042603,295.25
221.905487061,320.325
222.207901001,351.75
222.510299683,381.85
222.812728882,417.075
223.115097046,454.15
223.41746521,487.825
223.719848633,519.9
224.022171021,550.025
224.324508667,590.75
224.626846313,643.6
224.929168701,668.225
225.231460571,699.75
225.533737183,726.45
225.836013794,753.8
226.138290405,783.1
226.440536499,805.775
226.742767334,838.125
227.044998169,844.425
227.347213745,878.125
227.649429321,884.875
227.951629639,902.375
228.253799438,898.925
228.555953979,923.05
228.858123779,928.0
229.160263062,937.2
229.462371826,936.95
229.764511108,936.05
230.066619873,926.275
230.36869812,926.325
230.670776367,927.175
230.972854614,933.925
231.274902344,936.55
231.576950073,947.75
231.878967285,932.95
232.180999756,955.45
232.48298645,958.675
232.784988403,946.1
233.086975098,949.325
233.388946533,954.875
233.69090271,961.075
233.992858887,956.75
234.294769287,947.2
234.596694946,947.75
234.898605347,953.15
235.200500488,943.375
235.502380371,946.625
235.804244995,937.775
236.106109619,933.05
236.407958984,937.05
236.709777832,929.775
237.011581421,926.875
237.313400269,906.975
237.615203857,914.85
237.916976929,921.975
238.21875,904.125
238.520507812,907.025
238.822250366,920.9
239.12399292,904.075
239.425704956,907.8
239.727401733,887.325
240.02911377,893.35
240.330780029,886.875
240.632446289,889.125
240.93409729,890.775
241.23576355,883.275
241.537384033,890.9
241.839004517,899.175
242.140594482,892.125
242.442199707,896.325
242.743774414,896.275
243.045333862,906.275
243.346923828,908.15
243.648452759,913.275
243.949966431,917.325
244.251495361,931.625
244.552993774,935.3
244.854492188,940.35
245.155975342,948.975
245.457443237,959.375
245.758880615,969.95
246.060333252,960.675
246.36177063,965.375
246.66317749,975.375
246.964569092,975.875
247.265945435,992.1
247.567337036,1005.175
247.86869812,1022.75
248.170059204,1031.975
248.471389771,1042.55
248.772705078,1065.25
249.074035645,1083.975
249.375335693,1102.95
249.676620483,1122.55
249.977890015,1148.575
250.279159546,1178.8
250.58039856,1206.1
250.881637573,1226.825
251.182876587,1256.525
251.484069824,1294.725
251.785263062,1322.45
252.086456299,1358.525
252.387619019,1390.2
252.688781738,1432.25
252.989929199,1460.45
253.291061401,1503.375
253.592178345,1540.7
253.893280029,1590.525
254.194366455,1633.85
254.49546814,1662.025
254.796524048,1678.525
255.097579956,1746.175
255.398620605,1775.35
255.699645996,1819.0
256.000640869,1826.6
256.30166626,1890.45
256.602661133,1925.45
256.903656006,1934.65
257.204589844,1967.75
257.505523682,2006.95
257.80645752,2053.775
258.107391357,2076.675
258.408294678,2103.275
258.709228516,2111.35
259.010070801,2132.825
259.310943604,2175.7
259.611846924,2179.375
259.912658691,2192.075
260.213500977,2192.6
260.514343262,2224.675
260.815124512,2244.925
261.115936279,2248.825
261.416717529,2278.45
261.717468262,2283.625
262.018218994,2299.025
262.318969727,2341.675
262.619689941,2369.625
262.920410156,2422.0
263.221130371,2460.6
263.521789551,2501.1
263.822479248,2548.15
264.123138428,2611.6
264.42376709,2651.825
264.72442627,2665.625
265.025054932,2706.425
265.325622559,2732.375
265.626251221,2767.3
265.926818848,2783.925
266.227386475,2772.875
266.527954102,2812.75
266.828460693,2834.0
267.12902832,2810.7
267.429534912,2828.45
267.730010986,2835.975
268.030517578,2844.975
268.330993652,2850.0
268.631439209,2862.95
268.931915283,2883.075
269.232299805,2885.45
269.532745361,2901.375
269.8331604,2899.225
270.133544922,2899.225
270.433929443,2932.7
270.734313965,2941.9
271.034637451,2982.575
271.334991455,2990.425
271.635314941,3058.925
271.935638428,3057.75
272.235931396,3121.075
272.536254883,3164.05
272.836486816,3210.1
273.136749268,3270.4
273.437011719,3360.675
273.737213135,3417.525
274.037445068,3509.6
274.337677002,3575.825
274.6378479,3662.075
274.938049316,3760.5
275.238220215,3833.175
275.538360596,3937.8
275.838500977,4017.15
276.138641357,4151.375
276.438751221,4160.65
276.738830566,4287.675
277.03894043,4317.975
277.338989258,4456.325
277.639038086,4539.6
277.939056396,4610.975
278.239105225,4660.825
278.539093018,4750.575
278.839141846,4825.6
279.139129639,4910.025
279.439086914,4969.65
279.739044189,5043.125
280.039001465,5128.625
280.338928223,5194.825
280.63885498,5275.05
280.938781738,5330.1
281.238647461,5375.35
281.538513184,5401.1
281.838409424,5489.95
282.138244629,5551.475
282.438079834,5581.75
282.737945557,5649.15
283.037719727,5672.05
283.337524414,5718.625
283.637298584,5764.35
283.937072754,5809.075
284.236816406,5838.925
284.536560059,5858.35
284.836303711,5917.75
285.136016846,5977.825
285.43572998,6003.675
285.735412598,6017.55
286.035064697,6046.175
286.334747314,6129.825
286.634368896,6168.25
286.933990479,6122.475
287.233642578,6095.575
287.533203125,6162.575
287.832824707,6121.875
288.132385254,6066.9
288.431945801,5993.35
288.731506348,5921.075
289.031036377,5800.4
289.330566406,5730.0
289.630065918,5728.075
289.92956543,5737.825
290.229034424,5838.85
290.528503418,6001.225
290.827941895,6152.05
291.127380371,6278.15
291.42678833,6399.125
291.726226807,6511.0
292.025604248,6533.175
292.324981689,6608.95
292.624359131,6614.55
292.923736572,6671.6
293.223052979,6701.6
293.522369385,6709.55
293.821685791,6684.8
294.12097168,6701.975
294.420257568,6650.25
294.719543457,6666.575
295.018768311,6694.075
295.318023682,6637.2
295.617248535,6591.4
295.916442871,6548.6
296.215667725,6508.65
296.514862061,6434.875
296.813995361,6240.6
297.11315918,6108.85
297.412322998,5985.425
297.711425781,5968.9
298.010559082,6119.8
298.309631348,6296.3
298.608734131,6472.775
298.907806396,6640.625
299.206848145,6795.5
299.505889893,6867.625
299.804901123,6962.1
300.103912354,7007.0
300.402954102,7097.35
300.701904297,7170.875
301.00088501,7214.35
301.299835205,7291.225
301.5987854,7325.65
301.897735596,7387.2
302.196624756,7452.575
302.495513916,7526.175
302.794403076,7572.25
303.093292236,7610.025
303.392120361,7663.5
303.690979004,7734.3
303.989837646,7763.75
304.288604736,7836.15
304.587402344,7840.35
304.886199951,7861.975
305.184967041,7919.175
305.483734131,7958.775
305.782501221,7990.1
306.081176758,7981.7
306.37991333,8041.775
306.678619385,8039.5
306.977294922,8062.825
307.275970459,8072.425
307.574645996,8081.3
307.873260498,8061.875
308.171875,8091.425
308.470489502,8075.55
308.769104004,8005.65
309.067687988,8054.275
309.366241455,8038.4
309.664794922,7997.8
309.963348389,8003.375
310.261871338,8003.6
310.560394287,8008.075
310.858856201,8035.4
311.157348633,8055.3
311.455810547,8060.325
311.754272461,8085.325
312.052703857,8158.375
312.351135254,8163.125
312.649536133,8158.525
312.947937012,8162.9
313.246307373,8185.3
313.544647217,8167.375
313.843017578,8132.15
314.141387939,8112.15
314.439697266,8157.55
314.738006592,8084.45
315.036315918,8025.85
315.334564209,7953.475
315.6328125,7884.75
315.931091309,7853.65
316.229309082,7727.3
316.527526855,7597.65
316.825744629,7591.85
317.123901367,7499.075
317.422088623,7454.875
317.720245361,7439.85
318.0184021,7470.65
318.316497803,7508.125
318.614654541,7530.625
318.912750244,7594.0
319.21081543,7612.95
319.50894165,7655.175
319.806945801,7657.875
320.104980469,7627.9
320.403045654,7650.35
320.701049805,7599.05
320.999023438,7597.725
321.297027588,7542.9
321.595001221,7539.95
321.892913818,7518.075
322.190887451,7451.8
322.488830566,7394.6
322.786712646,7366.825
323.084625244,7286.6
323.382507324,7245.25
323.680358887,7192.325
323.978210449,7120.225
324.276062012,7098.3
324.573852539,7032.825
324.871643066,6977.95
325.169464111,6921.525
325.467224121,6852.5
325.764984131,6817.825
326.062744141,6741.75
326.360473633,6669.975
326.658203125,6622.5
326.955871582,6558.825
327.253570557,6506.525
327.551239014,6447.125
327.848907471,6397.3
328.146514893,6321.55
328.444152832,6271.3
328.741790771,6217.3
329.039367676,6172.8
329.336914062,6130.5
329.634521484,6064.9
329.932067871,6025.05
330.229553223,5951.65
330.527160645,5900.875
330.824615479,5857.6
331.12210083,5793.6
331.419586182,5713.175
331.717041016,5654.875
332.014465332,5558.025
332.311920166,5564.175
332.609313965,5496.425
332.906707764,5475.175
333.204101562,5473.925
333.501495361,5483.075
333.798828125,5514.55
334.096160889,5550.125
334.39352417,5594.875
334.690795898,5649.775
334.988098145,5692.075
335.285400391,5750.7
335.582641602,5754.0
335.879882812,5784.25
336.177124023,5797.35
336.474334717,5866.9
336.77154541,5871.7
337.068725586,5886.825
337.365905762,5880.45
337.66305542,5911.2
337.960205078,5920.95
338.257324219,5930.675
338.554443359,5913.925
338.8515625,5967.6
339.148590088,5939.75
339.445648193,5962.25
339.742736816,5914.05
340.039764404,5925.45
340.336761475,5891.675
340.63381958,5860.05
340.930755615,5801.3
341.227722168,5756.875
341.524688721,5671.9
341.821624756,5631.725
342.118560791,5663.475
342.415496826,5732.425
342.712402344,5845.45
343.009246826,5972.0
343.306121826,6096.45
343.602966309,6117.025
343.899810791,6225.5
344.196624756,6288.05
344.493438721,6314.175
344.79019165,6344.825
345.086975098,6413.175
345.383758545,6456.95
345.680480957,6424.525
345.977203369,6448.625
346.273956299,6494.9
346.570617676,6489.15
346.86730957,6509.125
347.163970947,6460.65
347.460601807,6505.35
347.757232666,6532.45
348.053894043,6526.65
348.350463867,6427.875
348.647064209,6439.55
348.943634033,6404.375
349.24017334,6408.875
349.536712646,6368.275
349.833251953,6397.375
350.129760742,6340.775
350.426208496,6349.3
350.722747803,6330.5
351.019195557,6317.15
351.315612793,6280.325
351.612060547,6255.475
351.908508301,6195.975
352.204864502,6152.0
352.501281738,6106.75
352.797637939,6053.45
353.093963623,5975.725
353.390319824,5916.55
353.686645508,5857.75
353.982940674,5800.2
354.27923584,5744.575
354.575531006,5686.35
354.871765137,5689.625
355.167999268,5649.2
355.464233398,5655.575
355.760437012,5677.55
356.056640625,5687.775
356.352813721,5669.1
356.648956299,5679.8
356.945129395,5712.175
357.241271973,5695.675
357.537384033,5711.625
357.833496094,5659.525
358.129577637,5644.525
358.425628662,5616.825
358.721679688,5604.275
359.017730713,5568.975
359.313720703,5531.775
359.609710693,5520.625
359.905761719,5459.25
360.201721191,5439.8
360.497650146,5377.775
360.793609619,5361.075
361.089538574,5284.8
361.385437012,5201.225
361.681365967,5153.325
361.977233887,5127.075
362.273071289,5060.825
362.568908691,4971.225
362.864746094,4857.125
363.160552979,4741.25
363.456359863,4580.5
363.752166748,4469.225
364.047912598,4380.425
364.343658447,4369.8
364.639434814,4366.3
364.935119629,4417.0
365.230834961,4484.05
365.526550293,4517.85
365.822174072,4508.6
366.117858887,4539.55
366.413482666,4580.875
366.709075928,4578.175
367.004730225,4501.3
367.300292969,4503.775
367.595855713,4545.5
367.891448975,4435.6
368.186981201,4362.05
368.482513428,4325.525
368.778015137,4306.0
369.073547363,4256.6
369.36895752,4273.5
369.664428711,4188.675
369.95993042,4065.075
370.255310059,4034.95
370.550720215,4013.375
370.846160889,3986.85
371.14151001,3952.025
371.436859131,3951.075
371.73223877,3926.9
372.027557373,3889.7
372.322875977,3825.9
372.618164062,3810.2
372.913482666,3761.325
373.208709717,3749.525
373.503967285,3694.15
373.799194336,3652.85
374.094421387,3657.025
374.389648438,3629.75
374.684844971,3617.775
374.979980469,3670.025
375.275146484,3674.95
375.570281982,3696.75
375.865386963,3708.575
376.160522461,3660.375
376.455596924,3662.175
376.750640869,3750.6
377.045715332,3766.4
377.340759277,3776.175
377.635772705,3834.375
377.93081665,3875.2
378.225769043,3947.9
378.520751953,4007.625
378.815734863,3952.525
379.110656738,4117.5
379.405548096,4260.175
379.700500488,4122.275
379.995391846,3908.25
380.290252686,3961.175
380.585083008,4059.75
380.879974365,4104.45
381.17477417,4025.975
381.469543457,3970.4
381.764404297,3958.7
382.059143066,4005.175
382.353912354,4072.8
382.648651123,4148.025
382.943389893,4120.975
383.238067627,3963.475
383.532775879,3974.875
383.827484131,3924.0
384.12210083,3920.475
384.416778564,3861.35
384.711425781,3783.875
385.006011963,3803.3
385.300628662,3799.325
385.595184326,3878.7
385.88973999,3962.2
386.184295654,4042.45
386.478820801,4141.85
386.77331543,4202.15
387.067840576,4305.625
387.362335205,4391.95
387.656768799,4455.3
387.951202393,4494.05
388.245635986,4564.4
388.540039062,4647.35
388.834472656,4686.8
389.128875732,4586.675
389.423187256,4393.35
389.717559814,4345.675
390.011871338,4439.2
390.306182861,4462.725
390.600463867,4489.7
390.894775391,4563.575
391.189025879,4568.625
391.48324585,4588.775
391.777526855,4622.025
392.071685791,4826.075
392.365875244,4893.7
392.660064697,5001.775
392.95425415,5275.2
393.248382568,5273.5
393.542510986,4848.025
393.836608887,4660.05
394.130706787,4676.85
394.424804688,4604.675
394.71887207,4733.7
395.012878418,4710.25
395.306915283,4605.85
395.600921631,4550.575
395.894927979,4524.4
396.188903809,4568.375
396.482879639,4585.675
396.776794434,4759.825
397.070739746,4720.425
397.364654541,4758.175
397.658538818,5115.45
397.952423096,5139.475
398.246307373,5086.65
398.540100098,5580.8
398.833953857,5478.625
399.127746582,5037.15
399.421508789,5046.875
399.715301514,4981.55
400.009063721,4884.6
400.30279541,4763.45
400.596496582,4681.4
400.890258789,4846.25
401.183929443,4893.55
401.47756958,4797.2
401.771240234,4590.475
402.064880371,4607.125
402.35848999,4654.25
402.652130127,4548.675
402.945678711,4617.5
403.239257812,4559.625
403.532775879,4520.0
403.82635498,4556.85
404.119842529,4467.925
404.413360596,4476.0
404.706848145,4523.975
405.000274658,4447.0
405.293762207,4522.35
405.587188721,4575.2
405.880584717,4417.125
406.17401123,4245.875
406.467407227,4055.75
406.760742188,4073.275
407.054107666,4107.85
407.347442627,4051.85
407.640716553,4034.2
407.934051514,4070.45
408.227325439,4148.025
408.520568848,4348.575
408.813842773,4447.7
409.107086182,4230.0
409.400238037,4173.125
409.693450928,4117.525
409.986633301,4241.275
410.279754639,4148.05
410.572875977,3890.05
410.86605835,3821.6
411.159118652,3831.475
411.452209473,3828.175
411.745330811,3713.4
412.038360596,3629.525
412.331390381,3665.775
412.624420166,3724.625
412.917388916,3625.7
413.210388184,3457.45
413.503387451,3427.875
413.796295166,3333.2
414.089233398,3174.125
414.382141113,3093.95
414.675048828,3078.025
414.967926025,3103.875
415.260803223,3076.15
415.55368042,3085.675
415.846466064,3042.3
416.139282227,3120.875
416.432098389,3238.225
416.724853516,3234.675
417.017608643,3177.375
417.31036377,3182.925
417.603088379,3315.975
417.895782471,3279.125
418.188476562,3255.7
418.481140137,3324.55
418.773803711,3362.0
419.066436768,3348.775
419.359039307,3426.275
419.651641846,3427.175
419.944244385,3423.15
420.236816406,3386.6
420.529327393,3572.775
420.821899414,3643.525
421.114379883,3570.925
421.406860352,3821.6
421.699371338,4043.05
421.991821289,3986.8
422.284240723,3795.225
422.576721191,3654.775
422.869110107,3532.45
423.161468506,3501.275
423.453857422,3528.05
423.74621582,3434.8
424.038543701,3291.45
424.330871582,3267.6
424.623168945,3192.975
424.915435791,3321.725
425.207702637,3291.025
425.499969482,3241.825
425.792205811,3186.975
426.084411621,2965.925
426.376617432,3044.175
426.668762207,3092.125
426.9609375,2981.6
427.253082275,3101.175
427.545196533,3483.925
427.837310791,3203.825
428.129425049,2950.125
428.421447754,3145.825
428.713531494,3142.775
429.005554199,3138.925
429.297576904,3162.55
429.589599609,3536.45
429.881561279,3842.575
430.173522949,3645.1
430.465484619,3596.625
430.757415771,3659.6
431.049316406,3438.025
431.341186523,3243.725
431.633117676,3135.025
431.924957275,2855.5
432.21673584,2765.9
432.508636475,2891.65
432.800415039,2907.9
433.092163086,2806.3
433.383972168,2783.225
433.675689697,3464.25
433.967437744,3915.6
434.259155273,3019.975
434.550872803,2726.1
434.842498779,2765.4
435.134185791,2882.55
435.425842285,2918.5
435.717437744,2826.275
436.009063721,2658.775
436.30065918,2797.15
436.592224121,3114.05
436.883758545,2928.325
437.175323486,2671.475
437.466827393,2662.875
437.758331299,2669.05
438.049804688,2690.275
438.341247559,2751.825
438.63269043,2821.325
438.924163818,2803.525
439.215515137,2781.3
439.50692749,2690.15
439.798309326,2682.975
440.089660645,2696.85
440.380981445,2623.4
440.672332764,2598.8
440.963623047,2851.6
441.254882812,3293.95
441.546173096,3456.625
441.837402344,3219.9
442.128631592,3048.675
442.41986084,3027.625
442.711029053,2904.5
443.002197266,2971.725
443.293365479,3146.6
443.584503174,3268.825
443.875610352,3232.775
444.166717529,2994.425
444.457794189,3041.95
444.748840332,3029.25
445.039916992,2991.625
445.330932617,3084.9
445.621948242,2930.525
445.912963867,2735.175
446.203918457,2965.2
446.494812012,3181.45
446.785827637,2980.1
447.076721191,2824.525
447.367584229,2795.2
447.658447266,2768.05
447.949371338,2813.925
448.24017334,2710.6
448.530975342,2636.375
448.821838379,2798.7
449.112579346,2867.2
449.40335083,2795.15
449.694152832,2832.525
449.984863281,2836.225
450.27557373,2764.95
450.56628418,2840.875
450.856933594,2839.825
451.147583008,2702.875
451.438262939,2611.65
451.728881836,2803.0
452.019470215,2887.125
452.310089111,2685.85
452.600646973,2711.95
452.891174316,2762.425
453.181732178,2604.775
453.472229004,2479.925
453.762695312,2591.35
454.053222656,2604.55
454.343658447,2473.9
454.634063721,2424.85
454.924530029,2583.675
455.214935303,2723.525
455.505279541,2799.55
455.795715332,2662.325
456.086029053,2474.725
456.376312256,2461.625
456.666687012,2488.95
456.956939697,2575.95
457.247192383,2574.75
457.537445068,2646.575
457.827728271,2837.975
458.117919922,2749.525
458.408081055,2676.95
458.698303223,2849.65
458.988433838,2786.1
459.278564453,2628.55
459.568725586,2893.175
459.858825684,2990.925
460.148864746,2705.925
460.438995361,2661.025
460.729034424,2723.125
461.019042969,2723.8
461.309082031,2909.975
461.599060059,2789.175
461.889007568,2362.0
462.179016113,2206.75
462.468933105,2412.2
462.75881958,2529.475
463.048736572,2295.775
463.338592529,2531.825
463.628448486,2866.625
463.918365479,2595.625
464.2081604,2748.225
464.497924805,2704.975
464.787780762,2825.325
465.077514648,3103.525
465.367218018,2754.075
465.657012939,2946.9
465.946685791,3317.475
466.236358643,2956.025
466.526092529,2455.175
466.815734863,2453.15
467.105316162,2384.0
467.394927979,2422.975
467.684570312,2282.3
467.974121094,2362.75
468.263671875,2467.55
468.553222656,2269.625
468.842773438,2177.425
469.132232666,2074.925
469.42175293,2096.775
469.711212158,2075.425
470.000640869,1949.0
470.290100098,2006.4
470.579498291,2040.65
470.868835449,2034.25
471.158294678,1997.25
471.447601318,1982.15
471.736907959,2047.25
472.026275635,2117.675
472.315551758,2090.0
472.604797363,2096.05
472.894104004,2203.975
473.183319092,2312.475
473.47253418,2297.675
473.761779785,2288.35
474.05090332,2218.5
474.340087891,2189.45
474.629241943,2131.125
474.918365479,2282.825
475.207427979,2520.075
475.496551514,2549.675
475.785614014,2305.65
476.074645996,2115.7
476.363708496,2210.225
476.652679443,2321.175
476.941650391,2167.375
477.230682373,2017.15
477.519622803,2024.6
477.808502197,2164.45
478.097412109,2429.9
478.386352539,2371.725
478.675201416,2125.2
478.964050293,2025.6
479.25289917,2198.7
479.541717529,2253.675
479.830474854,2106.375
480.11932373,2418.575
480.408050537,2585.925
480.696777344,2244.525
480.985534668,2107.525
481.274200439,2204.025
481.562866211,2426.775
481.851593018,2447.55
482.140197754,2395.425
482.428833008,2240.525
482.717468262,2047.85
483.006011963,2079.775
483.294586182,2186.575
483.5831604,2228.675
483.871673584,2089.625
484.16015625,2239.325
484.448699951,2440.35
484.7371521,2482.475
485.02557373,2494.35
485.314025879,2236.2
485.602416992,3459.025
485.890777588,12332.025
486.179199219,10984.575
486.467559814,2945.125
486.755859375,2149.15
487.044219971,2491.3
487.332519531,2656.65
487.620758057,2280.0
487.908966064,2043.3
488.197265625,1862.425
488.485473633,1771.75
488.773651123,1863.0
489.061859131,1868.4
489.350006104,1822.95
489.638122559,1769.75
489.926300049,1791.125
490.214355469,1738.75
490.502441406,1697.8
490.790527344,1632.175
491.078552246,1813.15
491.366546631,1810.725
491.654602051,1584.2
491.942565918,1673.8
492.230499268,1698.525
492.518493652,1667.675
492.806396484,1685.7
493.094268799,1622.425
493.382202148,1645.825
493.670074463,1748.525
493.957885742,1624.15
494.245727539,1607.7
494.533508301,1758.575
494.821289062,1663.6
495.109100342,1509.2
495.396850586,1473.525
495.684539795,1430.65
495.972290039,1627.15
496.25994873,1943.275
496.547607422,1938.35
496.835296631,1766.65
497.122894287,1486.15
497.410522461,1410.25
497.6980896,1413.775
497.985687256,1383.925
498.273223877,1471.05
498.560760498,1532.8
498.848266602,1562.175
499.135772705,1533.05
499.423217773,1573.45
499.710693359,1664.45
499.998138428,1598.425
500.285522461,1453.925
500.572937012,1389.325
500.860290527,1426.15
501.147644043,1517.1
501.434997559,1728.0
501.722290039,1601.85
502.00958252,1395.05
502.296875,1627.4
502.584106445,1616.8
502.871337891,1455.0
503.158599854,1521.45
503.445770264,1600.475
503.732910156,1572.85
504.020141602,1404.325
504.307220459,1398.175
504.594329834,1416.3
504.881469727,1365.325
505.168518066,1422.5
505.455535889,1482.65
505.742614746,1375.8
506.029632568,1312.825
506.316589355,1477.875
506.603637695,1558.475
506.890563965,1378.775
507.177459717,1227.125
507.464385986,1157.925
507.751312256,1359.175
508.038146973,1436.05
508.325012207,1311.5
508.611877441,1355.2
508.898681641,1364.7
509.185424805,1221.55
509.472259521,1190.85
509.759002686,1262.675
510.045715332,1283.55
510.332458496,1240.375
510.619140625,1284.45
510.905761719,1212.75
511.192504883,1208.35
511.479095459,1246.875
511.765686035,1201.3
512.052307129,1129.075
512.338928223,1079.375
512.625427246,1131.875
512.91204834,1181.725
513.198486328,1159.4
513.484985352,1133.95
513.77142334,1073.05
514.057922363,1113.65
514.344299316,1109.475
514.63079834,1070.725
514.917175293,1051.975
515.203552246,975.75
515.489868164,951.95
515.776245117,1058.4
516.0625,1088.775
516.348815918,1014.6
516.635070801,1053.425
516.921325684,1091.975
517.207580566,1033.35
517.493774414,952.375
517.779968262,965.675
518.066101074,998.05
518.352294922,953.875
518.638366699,953.75
518.924499512,1023.775
519.210632324,1091.6
519.496643066,1066.575
519.782714844,980.875
520.068786621,942.625
520.354736328,912.85
520.640686035,871.925
520.926757812,916.225
521.212646484,985.825
521.498535156,986.475
521.784484863,940.725
522.0703125,879.425
522.356262207,890.825
522.642089844,960.7
522.927856445,961.725
523.213684082,948.7
523.499511719,943.7
523.78527832,977.5
524.070983887,1016.85
524.356750488,992.4
524.64239502,963.95
524.928039551,954.375
525.213806152,974.175
525.499389648,960.725
525.784973145,984.175
526.070617676,1025.55
526.356140137,996.675
526.641723633,993.725
526.927307129,1049.05
527.212768555,1054.15
527.498291016,1031.775
527.783752441,1034.75
528.069213867,1018.45
528.354675293,1035.25
528.640014648,1172.8
528.925476074,1230.925
529.21081543,1168.4
529.496154785,1144.675
529.781555176,1126.8
530.066833496,1127.125
530.352050781,1148.55
530.637390137,1141.55
530.922607422,1140.55
531.207824707,1140.425
531.493041992,1115.875
531.778198242,1172.775
532.063354492,1153.0
532.348571777,1105.625
532.633666992,1133.25
532.918762207,1196.5
533.203857422,1271.4
533.488891602,1291.325
533.773925781,1243.6
534.059020996,1216.7
534.343933105,1251.15
534.628967285,1224.025
534.91394043,1231.75
535.198852539,1252.125
535.483703613,1221.85
535.768676758,1172.825
536.053527832,1173.725
536.338317871,1150.325
536.62322998,1086.925
536.90802002,1070.0
537.192810059,1086.025
537.477539062,1153.125
537.762329102,1192.425
538.047058105,1212.525
538.331726074,1240.025
538.616455078,1241.9
538.901123047,1209.225
539.18572998,1250.65
539.470397949,1249.225
539.755004883,1252.425
540.039550781,1225.6
540.32409668,1177.8
540.608703613,1205.625
540.893188477,1296.375
541.17767334,1310.15
541.462158203,1310.575
541.746643066,1253.425
542.031066895,1294.075
542.315429688,1341.7
542.59979248,1332.825
542.884216309,1319.65
543.168579102,1306.325
543.452941895,1312.25
543.737243652,1367.6
544.021484375,1408.425
544.305725098,1386.05
544.590026855,1373.0
544.874267578,1387.075
545.158447266,1435.65
545.442626953,1373.875
545.726806641,1289.775
546.010925293,1324.45
546.29510498,1342.75
546.579162598,1331.125
546.863220215,1356.0
547.147277832,1422.275
547.431335449,1485.25
547.715332031,1529.05
547.999328613,1618.95
548.283325195,1630.575
548.567260742,1505.625
548.851135254,1478.0
549.135070801,1454.375
549.419006348,1377.175
549.702819824,1460.725
549.986755371,1529.7
550.270507812,1487.05
550.554321289,1535.8
550.83807373,1546.3
551.121826172,1497.65
551.405517578,1522.95
551.689331055,1606.025
551.973022461,1794.85
552.256652832,1852.5
552.540344238,1769.375
552.823974609,1744.85
553.107543945,1737.95
553.391174316,1782.025
553.674743652,1830.725
553.958251953,1845.85
554.241821289,1847.975
554.525268555,1804.825
554.808776855,1782.375
555.092285156,1955.2
555.375671387,2015.9
555.659057617,1999.3
555.942504883,2034.825
556.225891113,2057.825
556.509216309,2024.375
556.792541504,1950.425
557.075866699,2009.85
557.359130859,2046.9
557.64239502,2049.95
557.92565918,2100.625
558.208862305,2082.65
558.49206543,2039.2
558.77532959,2044.5
559.058410645,2084.65
559.341552734,2072.05
559.624694824,2134.8
559.907775879,2183.375
560.190856934,2268.6
560.473937988,2277.95
560.756896973,2306.1
561.039978027,2328.575
561.322937012,2295.025
561.605895996,2306.125
561.88885498,2256.025
562.171813965,2254.125
562.454650879,2257.375
562.737548828,2286.675
563.020446777,2345.0
563.303283691,2362.825
563.58605957,2404.625
563.868896484,2398.025
564.151672363,2453.125
564.434387207,2471.3
564.717163086,2438.45
564.99987793,2498.125
565.282531738,2526.05
565.565185547,2472.6
565.847839355,2490.35
566.130432129,2583.925
566.413085938,2547.6
566.695678711,2575.05
566.978149414,2660.425
567.260681152,2787.825
567.543273926,2856.475
567.825744629,2752.625
568.108154297,2796.45
568.390686035,2891.75
568.673095703,3008.2
568.955505371,3037.8
569.237854004,3076.675
569.520202637,3293.3
569.802490234,3473.15
570.084838867,3456.575
570.367126465,3302.3
570.649414062,3330.675
570.93170166,3623.075
571.213928223,3686.6
571.496154785,3491.95
571.778381348,3686.9
572.06048584,3887.425
572.342590332,3514.825
572.624755859,3219.55
572.906860352,3282.45
573.188903809,3842.85
573.470947266,4053.275
573.752990723,3854.425
574.03503418,3954.6
574.317016602,4278.125
574.598937988,4076.125
574.88092041,3996.425
575.162841797,4162.85
575.444763184,3838.875
575.726623535,3626.65
576.008483887,3653.9
576.290344238,3985.4
576.572143555,4169.05
576.853881836,4218.775
577.135681152,4125.4
577.417419434,4195.15
577.699157715,4928.675
577.980895996,5085.675
578.262573242,4528.925
578.544128418,4117.625
578.825866699,4059.8
579.107421875,3819.475
579.388977051,3951.875
579.670593262,4295.375
579.952148438,4165.925
580.233642578,4263.55
580.515197754,4355.1
580.796691895,4109.2
581.078125,4247.075
581.359619141,5526.975
581.640991211,5615.55
581.922363281,4855.625
582.203796387,4917.55
582.485107422,4592.325
582.766418457,4256.2
583.047790527,4138.375
583.329040527,4047.45
583.610290527,3954.9
583.891540527,4030.2
584.172790527,4308.275
584.453918457,4322.525
584.735107422,4381.5
585.016235352,4762.575
585.297363281,4746.95
585.578552246,4575.65
585.859619141,4537.575
586.140625,4329.3
586.421630859,4208.075
586.702697754,4253.675
586.983642578,4461.225
587.264648438,4609.075
587.545654297,4570.575
587.826477051,4515.4
588.107421875,4359.8
588.388305664,4390.425
588.669189453,4491.125
588.950012207,4374.325
589.230834961,4260.725
589.511657715,4354.375
589.792358398,4446.0
590.073120117,4439.675
590.353881836,4431.825
590.63458252,4471.525
590.915283203,4419.5
591.195922852,4416.4
591.4765625,4468.175
591.757202148,4504.0
592.037780762,4494.25
592.31829834,4515.95
592.598937988,4688.475
592.879394531,4839.75
593.159912109,4759.325
593.440429688,4726.0
593.720825195,4698.5
594.001281738,4694.875
594.281677246,4617.325
594.562072754,4649.15
594.842407227,4726.025
595.122802734,4781.775
595.403137207,4762.9
595.683410645,4751.2
595.963623047,4770.575
596.243896484,4694.7
596.524169922,4708.35
596.804382324,4726.025
597.084533691,4757.975
597.364746094,4795.625
597.644836426,4839.45
597.924987793,4806.85
598.205078125,4784.75
598.485107422,4811.025
598.765197754,4931.125
599.045227051,4986.55
599.325195312,4898.375
599.605224609,4848.425
599.885192871,4890.0
600.165100098,4927.3
600.445007324,4904.075
600.724914551,4905.65
601.004760742,4939.35
601.284667969,4948.7
601.56451416,4928.25
601.844238281,4932.025
602.124084473,4928.65
602.403808594,4934.4
602.683532715,4975.75
602.963256836,4969.45
603.242919922,5013.475
603.522583008,5051.775
603.802246094,5039.275
604.081848145,5005.325
604.36138916,4999.325
604.641052246,5008.225
604.920532227,4979.525
605.200073242,5038.0
605.479614258,5071.85
605.759094238,5088.05
606.038574219,5109.1
606.317932129,5044.325
606.597412109,5024.1
606.87677002,5050.65
607.15612793,5111.95
607.435546875,5101.475
607.714782715,5103.35
607.99407959,5068.475
608.273376465,5063.85
608.552612305,5098.9
608.831848145,5117.225
609.111083984,5108.95
609.390258789,5120.075
609.669433594,5098.625
609.948608398,5158.425
610.227722168,5148.15
610.506713867,5087.3
610.785888672,5111.05
611.064880371,5099.7
611.34387207,5103.575
611.622924805,5140.175
611.901916504,5119.525
612.180847168,5070.9
612.459777832,5062.425
612.738647461,5079.7
613.01751709,5070.05
613.296447754,5007.325
613.575317383,5008.175
613.854064941,4943.45
614.132873535,4867.725
614.411621094,4825.425
614.690368652,4791.25
614.969177246,4741.85
615.247802734,4671.3
615.526489258,4636.175
615.805175781,4547.5
616.08380127,4453.175
616.362365723,4387.725
616.640991211,4330.925
616.919555664,4279.975
617.198059082,4408.15
617.4765625,4616.675
617.755126953,4788.225
618.033569336,4813.725
618.311950684,4795.675
618.590454102,4786.3
618.868774414,4761.925
619.147155762,4785.5
619.425598145,4766.55
619.703857422,4762.675
619.982177734,4781.65
620.260498047,4769.35
620.538757324,4768.6
620.816955566,4720.1
621.095214844,4681.725
621.373413086,4713.825
621.651550293,4753.225
621.929748535,4776.95
622.207824707,4763.025
622.485900879,4772.65
622.764038086,4775.425
623.042053223,4819.2
623.320007324,4832.375
623.598083496,4832.05
623.876037598,4814.2
624.153991699,4804.125
624.432006836,4869.45
624.709838867,4856.025
624.987731934,4828.65
625.265563965,4837.775
625.543395996,4833.3
625.821228027,4897.0
626.098999023,4871.05
626.376831055,4928.8
626.654541016,4978.575
626.932250977,4983.2
627.209960938,5034.025
627.487670898,5036.225
627.765319824,5060.825
628.04296875,5056.325
628.320495605,5058.4
628.598083496,5052.625
628.875671387,5072.375
629.153259277,5113.975
629.430725098,5158.875
629.708251953,5143.475
629.985656738,5167.2
630.263122559,5205.45
630.540588379,5215.7
630.817932129,5238.075
631.095275879,5254.425
631.372680664,5283.475
631.649963379,5337.125
631.927246094,5355.25
632.204589844,5426.975
632.481811523,5440.55
632.759033203,5514.825
633.036254883,5532.0
633.313415527,5612.075
633.590576172,5668.45
633.867736816,5750.575
634.144836426,5806.75
634.421875,5840.575
634.698913574,5891.85
634.976013184,5925.8
635.252990723,5998.075
635.529968262,6022.9
635.807006836,6072.75
636.08392334,6071.325
636.360839844,5994.075
636.637756348,5882.175
636.914611816,5843.325
637.191467285,5817.525
637.468261719,5889.825
637.745056152,5862.25
638.021789551,5872.975
638.298583984,5903.0
638.575317383,5914.575
638.851989746,5894.925
639.12878418,5922.975
639.405395508,5890.425
639.682006836,5932.125
639.958618164,5909.725
640.235229492,5903.475
640.511779785,5939.225
640.788330078,5899.375
641.064880371,5901.7
641.341308594,5898.6
641.617797852,5874.15
641.894226074,5896.9
642.170654297,5890.55
642.44708252,5907.325
642.723388672,5888.125
642.999755859,5864.15
643.276123047,5886.25
643.552429199,5848.15
643.828674316,5861.525
644.104919434,5838.25
644.381164551,5837.275
644.657348633,5824.975
644.933532715,5794.85
645.209716797,5811.425
645.485839844,5794.6
645.761901855,5799.8
646.038024902,5774.95
646.314086914,5801.55
646.590087891,5766.6
646.866149902,5791.7
647.142150879,5738.475
647.41809082,5733.475
647.694030762,5715.275
647.969970703,5712.85
648.245788574,5727.6
648.521728516,5719.975
648.797546387,5686.625
649.073303223,5699.15
649.349182129,5673.525
649.624938965,5666.975
649.900634766,5654.775
650.176391602,5645.65
650.452087402,5635.775
650.727783203,5633.05
651.003479004,5632.9
651.279052734,5607.85
651.554626465,5598.575
651.83026123,5608.15
652.105773926,5638.625
652.381286621,5578.25
652.656860352,5556.4
652.932312012,5564.35
653.207763672,5582.725
653.483215332,5598.925
653.758605957,5566.825
654.033935547,5581.075
654.309326172,5592.075
654.584716797,5579.9
654.859985352,5576.375
655.135253906,5595.7
655.410583496,5597.0
655.685791016,6446.4
655.9609375,10072.425
656.236206055,9841.675
656.511291504,6458.0
656.786437988,5697.125
657.061645508,5594.4
657.336669922,5585.475
657.611694336,5615.975
657.886779785,5618.5
658.161804199,5653.625
658.436828613,5584.475
658.711791992,5602.7
658.986755371,5611.525
659.261657715,5585.625
659.536621094,5602.575
659.811401367,5616.225
660.086303711,5620.25
660.36114502,5595.3
660.635864258,5605.025
660.910644531,5624.05
661.185424805,5586.825
661.460205078,5618.05
661.734863281,5609.775
662.009521484,5599.825
662.284179688,5609.675
662.558776855,5658.8
662.833435059,5648.35
663.108032227,5650.925
663.382568359,5637.025
663.657043457,5677.5
663.93157959,5686.3
664.206054688,5647.7
664.48046875,5688.85
664.755004883,5692.9
665.02935791,5708.85
665.303710938,5725.6
665.578125,5728.725
665.852416992,5716.6
666.126708984,5722.175
666.401062012,5728.175
666.675292969,5747.6
666.949462891,5764.1
667.223754883,5733.075
667.497924805,5774.925
667.772094727,5781.125
668.046264648,5761.4
668.3203125,5777.075
668.594421387,5785.375
668.868469238,5805.875
669.14251709,5791.55
669.416503906,5781.875
669.690551758,5805.8
669.964477539,5815.775
670.23840332,5832.525
670.512329102,5809.35
670.786254883,5771.4
671.060058594,5843.4
671.333984375,5821.1
671.607788086,5831.225
671.881530762,5827.4
672.155334473,5876.225
672.429077148,5874.7
672.702758789,5886.1
672.97644043,5839.625
673.25012207,5829.95
673.523742676,5831.525
673.797302246,5846.325
674.070922852,5903.475
674.344482422,5888.75
674.618041992,5890.1
674.891601562,5884.725
675.165100098,5897.025
675.438476562,5895.1
675.711975098,5923.025
675.985412598,5882.625
676.258789062,5891.9
676.532165527,5907.65
676.805480957,5890.825
677.078796387,5921.975
677.352111816,5915.05
677.625366211,5877.025
677.898620605,5870.05
678.171875,5932.325
678.445007324,5915.425
678.718200684,5925.05
678.991394043,5937.3
679.264404297,5917.35
679.537536621,5944.975
679.81060791,5937.8
680.083679199,5953.025
680.356689453,5937.925
680.629699707,5958.725
680.902648926,5956.8
681.175598145,5995.325
681.448547363,5980.6
681.721435547,5962.25
681.99420166,5980.65
682.267150879,5957.3
682.539916992,5981.325
682.812744141,5957.35
683.085510254,5968.525
683.358215332,5961.4
683.63092041,5970.0
683.903625488,5943.275
684.176330566,5966.175
684.448913574,5943.25
684.721557617,5930.6
684.99420166,5980.925
685.266662598,5977.725
685.539245605,5994.575
685.811767578,6019.35
686.084289551,6008.625
686.356689453,6027.65
686.629150391,6052.625
686.901550293,6045.225
687.17401123,6030.6
687.446350098,6071.625
687.718688965,6061.45
687.990966797,6101.425
688.263305664,6105.4
688.535522461,6080.575
688.807739258,6089.3
689.079956055,6129.725
689.352172852,6126.675
689.624328613,6102.25
689.896484375,6150.15
690.168518066,6125.125
690.440612793,6169.2
690.71270752,6164.775
690.984741211,6167.0
691.256713867,6206.025
691.528747559,6172.475
691.800720215,6189.475
692.072631836,6211.6
692.344543457,6217.325
692.616394043,6232.975
692.888244629,6236.3
693.160095215,6247.7
693.431945801,6285.8
693.703674316,6236.725
693.975463867,6252.575
694.247131348,6273.875
694.518859863,6267.575
694.790588379,6300.975
695.062255859,6289.025
695.33380127,6298.7
695.60546875,6294.4
695.87701416,6300.725
696.148498535,6320.8
696.42010498,6349.05
696.691589355,6370.025
696.96307373,6376.225
697.234558105,6398.425
697.50592041,6385.75
697.777282715,6404.875
698.048706055,6412.275
698.320068359,6451.3
698.591308594,6407.5
698.862670898,6433.55
699.133972168,6446.725
699.405151367,6443.075
699.676391602,6488.125
699.947570801,6440.125
700.21875,6448.675
700.489868164,6478.0
700.761047363,6464.7
701.032104492,6512.7
701.303100586,6480.725
701.57421875,6523.625
701.845214844,6520.95
702.116149902,6543.8
702.387207031,6538.75
702.65814209,6540.6
702.928955078,6572.025
703.199951172,6555.475
703.47076416,6523.275
703.741577148,6528.0
704.012451172,6565.25
704.28314209,6586.45
704.553955078,6580.575
704.824707031,6612.825
705.095397949,6626.075
705.366027832,6635.425
705.63671875,6632.975
705.907348633,6628.8
706.17791748,6622.3
706.448486328,6654.975
706.719055176,6692.475
706.989562988,6697.875
707.260131836,6713.775
707.530517578,6711.925
707.800964355,6718.6
708.071411133,6699.175
708.341796875,6707.925
708.612182617,6691.65
708.882446289,6692.225
709.152893066,6719.975
709.423156738,6685.375
709.693359375,6719.025
709.963623047,6730.225
710.233825684,6742.825
710.503967285,6685.175
710.774169922,6740.525
711.044311523,6717.575
711.31439209,6736.9
711.584533691,6772.6
711.854553223,6745.525
712.124572754,6774.775
712.39465332,6746.8
712.664611816,6787.125
712.934509277,6850.925
713.204467773,6798.45
713.474365234,6817.3
713.74420166,6816.275
714.014099121,6830.25
714.283874512,6809.85
714.553710938,6849.2
714.823486328,6867.7
715.093200684,6832.4
715.362915039,6857.725
715.632629395,6832.0
715.902282715,6837.45
716.171875,6826.45
716.441589355,6838.1
716.711181641,6835.4
716.980712891,6844.0
717.250244141,6848.025
717.519775391,6863.025
717.78918457,6886.4
718.058654785,6919.175
718.328125,6956.0
718.597473145,6907.85
718.866882324,6911.6
719.136230469,6933.65
719.405578613,6940.925
719.674865723,6959.2
719.944152832,6940.6
720.213439941,6930.3
720.48260498,6995.825
720.75177002,6988.85
721.020996094,7003.7
721.290100098,6981.875
721.559204102,6962.75
721.828308105,7002.7
722.097351074,7004.975
722.366455078,6993.25
722.635437012,7000.9
722.904418945,6928.25
723.173400879,7023.075
723.442321777,7039.225
723.711181641,7009.55
723.980102539,7047.7
724.248962402,7020.325
724.51776123,7030.8
724.786560059,7053.775
725.055358887,7062.25
725.324035645,7029.125
725.592834473,7056.0
725.86151123,7025.9
726.130187988,7063.825
726.398803711,7062.825
726.667419434,7065.0
726.935974121,7055.25
727.204528809,7030.45
727.473083496,7062.95
727.741638184,7044.25
728.010070801,7023.1
728.278564453,7010.7
728.546936035,7034.15
728.815368652,6990.175
729.08380127,6911.275
729.352111816,6918.625
729.620361328,6863.85
729.88873291,6901.875
730.156982422,6944.9
730.425231934,6964.45
730.693481445,6963.925
730.961669922,7025.175
731.229797363,7058.175
731.49798584,7090.025
731.766113281,7137.75
732.034118652,7181.6
732.302246094,7228.425
732.570251465,7260.25
732.838256836,7263.325
733.106262207,7373.125
733.374145508,7386.55
733.642089844,7424.6
733.909973145,7512.35
734.177856445,7570.55
734.445678711,7612.0
734.713562012,7730.925
734.981323242,7724.575
735.249084473,7756.125
735.516845703,7904.575
735.784545898,7975.0
736.052185059,8006.775
736.319885254,8123.7
736.587524414,8153.55
736.855102539,8183.825
737.122619629,8309.525
737.390197754,8327.7
737.657714844,8423.825
737.925170898,8446.775
738.192749023,8544.8
738.460144043,8627.35
738.727539062,8676.075
738.994995117,8750.4
739.262329102,8861.1
739.529663086,8950.825
739.79699707,9001.325
740.06427002,9037.55
740.331481934,9100.15
740.598754883,9161.875
740.865905762,9210.475
741.133056641,9339.225
741.40032959,9332.8
741.667358398,9457.575
741.934448242,9454.0
742.201599121,9505.875
742.468566895,9580.85
742.735534668,9638.8
743.002563477,9665.125
743.26953125,9648.85
743.536437988,9725.4
743.803405762,9813.8
744.0703125,9818.15
744.337097168,9912.475
744.604003906,9823.85
744.870727539,9898.35
745.137512207,9988.5
745.40423584,10005.8
745.670959473,9978.775
745.93762207,10026.7
746.204284668,10071.075
746.470947266,10086.55
746.737548828,10061.475
747.004089355,10107.775
747.270751953,10141.325
747.53717041,10173.6
747.803710938,10125.225
748.070251465,10139.325
748.336608887,10128.725
748.603027344,10110.5
748.869445801,10127.1
749.135803223,10118.75
749.402099609,10133.25
749.668457031,10116.825
749.934753418,10137.4
750.20098877,10082.775
750.467224121,10120.25
750.733459473,10128.25
750.999572754,10125.875
751.26574707,10071.8
751.531860352,10092.325
751.797912598,10079.95
752.064025879,10019.025
752.330078125,10044.075
752.596069336,10039.925
752.862060547,10004.8
753.127990723,10029.125
753.393920898,10009.825
753.659912109,9982.3
753.925720215,10034.9
754.19152832,9998.775
754.457397461,9988.425
754.723144531,9936.725
754.988952637,9893.675
755.254699707,9915.15
755.520385742,9977.075
755.786071777,9965.05
756.051696777,9907.525
756.317382812,9870.625
756.582946777,9861.2
756.848510742,9918.05
757.114074707,9859.2
757.379577637,9879.625
757.645080566,9928.025
757.910583496,9875.575
758.175964355,9815.5
758.441345215,9802.175
758.706848145,9705.475
758.972106934,9691.3
759.237426758,9741.45
759.502807617,9754.75
759.768005371,9771.675
760.03326416,9729.35
760.298522949,9672.825
760.563659668,9708.875
760.828857422,9709.8
761.093994141,9701.575
761.359130859,9651.6
761.624206543,9646.925
761.889282227,9609.275
762.15423584,9636.75
762.419250488,9618.7
762.684265137,9574.975
762.949157715,9554.125
763.214050293,9576.325
763.479003906,9560.725
763.743835449,9562.875
764.008666992,9539.675
764.2734375,9509.3
764.538208008,9571.7
764.802978516,9605.65
765.067687988,9569.125
765.332397461,9578.625
765.597045898,9561.275
765.861694336,9506.9
766.126342773,9500.175
766.390930176,9460.35
766.655395508,9434.3
766.920043945,9390.9
767.184509277,9424.275
767.448974609,9458.075
767.713439941,9426.8
767.977783203,9376.85
768.2421875,9446.025
768.506591797,9356.9
768.770874023,9465.725
769.03515625,9430.475
769.299499512,9423.45
769.563720703,9424.7
769.827941895,9392.3
770.092163086,9381.975
770.356323242,9386.575
770.620483398,9378.475
770.88458252,9420.975
771.148681641,9430.925
771.412719727,9379.325
771.676757812,9428.825
771.940734863,9360.95
772.204711914,9365.025
772.468688965,9332.85
772.73260498,9364.175
772.996459961,9343.525
773.260314941,8338.275
773.524169922,1074.8
773.787963867,148.575
774.051696777,119.5
774.315551758,117.9
774.579223633,120.025
774.842895508,119.85
775.106567383,121.8
775.370239258,116.475
775.633789062,123.425
775.897399902,124.625
776.160949707,117.025
776.424499512,120.575
776.687988281,123.5
776.951477051,125.0
777.214904785,117.8
777.47833252,120.1
