191.299911499,101.875
191.603515625,105.35
191.907119751,97.35
192.210693359,105.225
192.514251709,98.525
192.817810059,103.2
193.121368408,102.175
193.42489624,104.775
193.728408813,99.025
194.031936646,96.25
194.33543396,92.3
194.638916016,111.025
194.94241333,96.775
195.245880127,94.6
195.549331665,95.25
195.852767944,98.3
196.156204224,112.1
196.459625244,106.15
196.763015747,107.45
197.066436768,114.15
197.369812012,108.575
197.673187256,113.15
197.9765625,104.425
198.279922485,108.0
198.583251953,103.925
198.886581421,110.35
199.18989563,115.225
199.493209839,111.5
199.79649353,104.0
200.09979248,112.45
200.403076172,108.775
200.706314087,107.825
201.009567261,109.775
201.312820435,113.9
201.616027832,104.275
201.919235229,103.45
202.222457886,107.875
202.525634766,110.975
202.828826904,107.0
203.132003784,104.5
203.435150146,108.45
203.738296509,109.7
204.041412354,107.075
204.344558716,111.45
204.647659302,114.125
204.950759888,114.025
205.253845215,113.975
205.556930542,108.025
205.859985352,108.625
206.163024902,111.375
206.466079712,107.3
206.769104004,114.325
207.072113037,106.375
207.375137329,102.725
207.678131104,105.625
207.981109619,107.325
208.284088135,102.75
208.587036133,106.075
208.889984131,106.075
209.19291687,112.0
209.495849609,109.8
209.798751831,113.375
210.101654053,106.875
210.404556274,112.05
210.707427979,106.375
211.010269165,114.2
211.31312561,111.075
211.615982056,107.95
211.918807983,111.425
212.221618652,107.3
212.524429321,104.35
212.827224731,112.4
213.130004883,105.625
213.432769775,105.2
213.735534668,106.8
214.038269043,109.725
214.341003418,104.6
214.643737793,105.8
214.946456909,106.925
215.249145508,108.15
215.551834106,109.05
215.854507446,106.4
216.157165527,103.925
216.45980835,105.25
216.762451172,110.325
217.065078735,112.15
217.36769104,107.65
217.670303345,109.825
217.972885132,108.825
218.275466919,112.125
218.578048706,101.425
218.880599976,111.925
219.183120728,105.7
219.485656738,100.075
219.788192749,107.625
220.090682983,108.85
220.393188477,110.95
220.695663452,117.65
220.998138428,115.95
221.300582886,125.55
221.603042603,118.25
221.905487061,122.1
222.207901001,124.1
222.510299683,126.275
222.812728882,134.325
223.115097046,140.95
223.41746521,147.475
223.719848633,149.475
224.022171021,147.4
224.324508667,147.95
224.626846313,169.375
224.929168701,162.225
225.231460571,176.85
225.533737183,169.45
225.836013794,171.325
226.138290405,181.2
226.440536499,179.8
226.742767334,190.9
227.044998169,187.275
227.347213745,193.475
227.649429321,196.85
227.951629639,197.35
228.253799438,197.45
228.555953979,204.0
228.858123779,199.15
229.160263062,208.225
229.462371826,202.725
229.764511108,207.95
230.066619873,199.9
230.36869812,205.6
230.670776367,210.35
230.972854614,210.025
231.274902344,208.45
231.576950073,217.325
231.878967285,209.4
232.180999756,216.625
232.48298645,221.8
232.784988403,220.6
233.086975098,222.9
233.388946533,223.325
233.69090271,221.325
233.992858887,231.425
234.294769287,224.25
234.596694946,221.225
234.898605347,231.975
235.200500488,230.9
235.502380371,227.35
235.804244995,226.075
236.106109619,218.675
236.407958984,230.45
236.709777832,223.075
237.011581421,226.675
237.313400269,217.85
237.615203857,228.575
237.916976929,231.7
238.21875,225.925
238.520507812,227.875
238.822250366,231.425
239.12399292,229.425
239.425704956,239.7
239.727401733,222.375
240.02911377,231.775
240.330780029,232.525
240.632446289,227.325
240.93409729,233.925
241.23576355,235.8
241.537384033,233.55
241.839004517,231.05
242.140594482,225.225
242.442199707,234.5
242.743774414,236.225
243.045333862,236.85
243.346923828,235.55
243.648452759,237.6
243.949966431,234.75
244.251495361,239.8
244.552993774,240.225
244.854492188,240.175
245.155975342,237.75
245.457443237,249.275
245.758880615,244.3
246.060333252,250.075
246.36177063,235.8
246.66317749,249.35
246.964569092,243.675
247.265945435,250.9
247.567337036,248.0
247.86869812,255.325
248.170059204,246.575
248.471389771,254.125
248.772705078,256.625
249.074035645,257.6
249.375335693,259.525
249.676620483,277.225
249.977890015,270.55
250.279159546,278.075
250.58039856,281.3
250.881637573,280.7
251.182876587,285.075
251.484069824,285.925
251.785263062,292.2
252.086456299,308.3
252.387619019,296.625
252.688781738,305.225
252.989929199,314.525
253.291061401,319.95
253.592178345,330.7
253.893280029,325.7
254.194366455,342.05
254.49546814,340.25
254.796524048,335.725
255.097579956,348.225
255.398620605,347.0
255.699645996,358.525
256.000640869,346.1
256.30166626,365.45
256.602661133,369.3
256.903656006,370.45
257.204589844,379.375
257.505523682,373.25
257.80645752,378.6
258.107391357,378.625
258.408294678,377.9
258.709228516,382.575
259.010070801,380.8
259.310943604,379.825
259.611846924,383.925
259.912658691,384.575
260.213500977,381.875
260.514343262,384.025
260.815124512,383.7
261.115936279,379.35
261.416717529,393.825
261.717468262,385.275
262.018218994,384.1
262.318969727,391.85
262.619689941,399.075
262.920410156,395.4
263.221130371,401.725
263.521789551,404.35
263.822479248,405.825
264.123138428,421.4
264.42376709,422.1
264.72442627,420.1
265.025054932,413.2
265.325622559,421.625
265.626251221,431.575
265.926818848,432.925
266.227386475,418.3
266.527954102,425.675
266.828460693,437.7
267.12902832,417.65
267.429534912,424.825
267.730010986,423.925
268.030517578,418.6
268.330993652,421.825
268.631439209,419.05
268.931915283,427.775
269.232299805,422.55
269.532745361,427.0
269.8331604,422.025
270.133544922,419.425
270.433929443,423.025
270.734313965,425.075
271.034637451,426.1
271.334991455,420.075
271.635314941,429.85
271.935638428,439.425
272.235931396,444.275
272.536254883,436.825
272.836486816,441.875
273.136749268,446.75
273.437011719,469.675
273.737213135,476.6
274.037445068,463.15
274.337677002,476.575
274.6378479,479.85
274.938049316,500.65
275.238220215,501.675
275.538360596,517.075
275.838500977,512.975
276.138641357,533.45
276.438751221,531.15
276.738830566,535.975
277.03894043,542.925
277.338989258,555.75
277.639038086,563.175
277.939056396,567.6
278.239105225,571.375
278.539093018,575.675
278.839141846,572.7
279.139129639,595.825
279.439086914,600.15
279.739044189,604.625
280.039001465,610.2
280.338928223,619.775
280.63885498,624.35
280.938781738,626.3
281.238647461,620.25
281.538513184,636.6
281.838409424,629.3
282.138244629,643.825
282.438079834,640.375
282.737945557,645.425
283.037719727,650.725
283.337524414,661.6
283.637298584,647.725
283.937072754,657.5
284.236816406,663.75
284.536560059,665.575
284.836303711,661.725
285.136016846,676.55
285.43572998,677.6
285.735412598,675.45
286.035064697,675.225
286.334747314,683.225
286.634368896,675.675
286.933990479,687.825
287.233642578,673.425
287.533203125,675.2
287.832824707,670.075
288.132385254,676.45
288.431945801,653.15
288.731506348,651.025
289.031036377,633.525
289.330566406,631.175
289.630065918,634.75
289.92956543,633.425
290.229034424,642.85
290.528503418,657.025
290.827941895,668.5
291.127380371,682.25
291.42678833,682.175
291.726226807,705.5
292.025604248,698.075
292.324981689,710.225
292.624359131,699.225
292.923736572,706.375
293.223052979,719.625
293.522369385,706.9
293.821685791,704.2
294.12097168,713.775
294.420257568,693.75
294.719543457,707.775
295.018768311,704.85
295.318023682,703.85
295.617248535,691.975
295.916442871,694.675
296.215667725,690.025
296.514862061,692.2
296.813995361,656.075
297.11315918,642.575
297.412322998,638.825
297.711425781,634.65
298.010559082,654.45
298.309631348,660.85
298.608734131,675.325
298.907806396,696.0
299.206848145,707.975
299.505889893,712.9
299.804901123,719.1
300.103912354,730.975
300.402954102,744.125
300.701904297,745.5
301.00088501,751.25
301.299835205,752.925
301.5987854,757.125
301.897735596,761.5
302.196624756,767.65
302.495513916,782.675
302.794403076,769.775
303.093292236,781.325
303.392120361,792.75
303.690979004,795.3
303.989837646,799.375
304.288604736,811.475
304.587402344,790.125
304.886199951,812.725
305.184967041,810.725
305.483734131,816.6
305.782501221,810.525
306.081176758,814.675
306.37991333,818.8
306.678619385,816.65
306.977294922,820.225
307.275970459,818.15
307.574645996,822.625
307.873260498,816.3
308.171875,818.875
308.470489502,825.0
308.769104004,808.975
309.067687988,802.55
309.366241455,807.825
309.664794922,810.975
309.963348389,810.025
310.261871338,810.325
310.560394287,813.35
310.858856201,817.275
311.157348633,818.975
311.455810547,822.8
311.754272461,813.15
312.052703857,827.225
312.351135254,822.1
312.649536133,835.75
312.947937012,820.6
313.246307373,834.475
313.544647217,823.15
313.843017578,825.25
314.141387939,820.225
314.439697266,830.925
314.738006592,812.225
315.036315918,817.175
315.334564209,805.425
315.6328125,798.925
315.931091309,793.225
316.229309082,788.3
316.527526855,761.475
316.825744629,780.95
317.123901367,758.325
317.422088623,762.45
317.720245361,757.9
318.0184021,764.55
318.316497803,764.225
318.614654541,767.8
318.912750244,776.4
319.21081543,765.15
319.50894165,781.625
319.806945801,777.975
320.104980469,761.65
320.403045654,768.65
320.701049805,763.45
320.999023438,767.825
321.297027588,767.875
321.595001221,766.6
321.892913818,761.2
322.190887451,753.25
322.488830566,747.9
322.786712646,753.925
323.084625244,736.6
323.382507324,734.725
323.680358887,735.575
323.978210449,720.325
324.276062012,722.85
324.573852539,725.625
324.871643066,715.775
325.169464111,713.65
325.467224121,711.15
325.764984131,692.925
326.062744141,687.975
326.360473633,686.225
326.658203125,680.55
326.955871582,673.275
327.253570557,663.525
327.551239014,670.625
327.848907471,658.175
328.146514893,652.55
328.444152832,646.325
328.741790771,655.725
329.039367676,640.75
329.336914062,633.025
329.634521484,624.4
329.932067871,633.325
330.229553223,613.75
330.527160645,611.625
330.824615479,618.625
331.12210083,605.65
331.419586182,595.55
331.717041016,598.2
332.014465332,586.525
332.311920166,596.9
332.609313965,576.075
332.906707764,586.025
333.204101562,579.175
333.501495361,580.65
333.798828125,584.8
334.096160889,590.325
334.39352417,596.3
334.690795898,599.775
334.988098145,599.4
335.285400391,614.3
335.582641602,605.8
335.879882812,613.1
336.177124023,608.375
336.474334717,616.575
336.77154541,612.175
337.068725586,614.875
337.365905762,614.95
337.66305542,617.75
337.960205078,626.025
338.257324219,620.225
338.554443359,615.825
338.8515625,621.5
339.148590088,614.825
339.445648193,628.2
339.742736816,612.175
340.039764404,616.475
340.336761475,616.825
340.63381958,616.45
340.930755615,614.25
341.227722168,607.525
341.524688721,587.725
341.821624756,600.7
342.118560791,608.525
342.415496826,597.5
342.712402344,619.575
343.009246826,631.275
343.306121826,637.475
343.602966309,638.35
343.899810791,638.825
344.196624756,646.575
344.493438721,662.15
344.79019165,659.425
345.086975098,658.775
345.383758545,675.775
345.680480957,666.6
345.977203369,671.225
346.273956299,671.075
346.570617676,663.55
346.86730957,668.675
347.163970947,671.725
347.460601807,675.175
347.757232666,673.15
348.053894043,670.525
348.350463867,667.4
348.647064209,666.7
348.943634033,669.375
349.24017334,664.525
349.536712646,660.6
349.833251953,663.525
350.129760742,662.975
350.426208496,657.9
350.722747803,664.5
351.019195557,653.75
351.315612793,655.0
351.612060547,651.0
351.908508301,637.975
352.204864502,637.925
352.501281738,641.1
352.797637939,632.1
353.093963623,630.0
353.390319824,616.8
353.686645508,616.5
353.982940674,614.775
354.27923584,597.025
354.575531006,592.55
354.871765137,598.975
355.167999268,596.4
355.464233398,598.55
355.760437012,605.475
356.056640625,602.65
356.352813721,607.45
356.648956299,603.05
356.945129395,598.4
357.241271973,606.575
357.537384033,607.625
357.833496094,587.45
358.129577637,587.75
358.425628662,590.825
358.721679688,582.475
359.017730713,594.75
359.313720703,594.525
359.609710693,592.425
359.905761719,578.6
360.201721191,579.35
360.497650146,563.225
360.793609619,573.625
361.089538574,576.75
361.385437012,553.3
361.681365967,550.875
361.977233887,551.35
362.273071289,561.3
362.568908691,538.95
362.864746094,525.1
363.160552979,522.825
363.456359863,504.0
363.752166748,500.775
364.047912598,481.025
364.343658447,486.0
364.639434814,486.375
364.935119629,486.85
365.230834961,496.925
365.526550293,497.95
365.822174072,494.35
366.117858887,508.85
366.413482666,507.8
366.709075928,511.225
367.004730225,492.7
367.300292969,496.625
367.595855713,499.2
367.891448975,486.825
368.186981201,482.4
368.482513428,481.35
368.778015137,482.2
369.073547363,475.825
369.36895752,476.05
369.664428711,464.875
369.95993042,463.1
370.255310059,454.175
370.550720215,459.65
370.846160889,460.0
371.14151001,446.7
371.436859131,446.225
371.73223877,441.925
372.027557373,438.575
372.322875977,435.2
372.618164062,441.725
372.913482666,436.5
373.208709717,437.575
373.503967285,417.5
373.799194336,423.375
374.094421387,420.275
374.389648438,422.775
374.684844971,421.575
374.979980469,422.15
375.275146484,429.225
375.570281982,427.975
375.865386963,430.25
376.160522461,422.625
376.455596924,427.175
376.750640869,427.625
377.045715332,429.925
377.340759277,442.05
377.635772705,441.725
377.93081665,444.825
378.225769043,451.825
378.520751953,453.725
378.815734863,448.125
379.110656738,468.2
379.405548096,472.375
379.700500488,468.225
379.995391846,437.675
380.290252686,450.325
380.585083008,459.15
380.879974365,464.175
381.17477417,447.8
381.469543457,448.325
381.764404297,445.9
382.059143066,454.85
382.353912354,459.5
382.648651123,454.75
382.943389893,460.1
383.238067627,451.575
383.532775879,451.5
383.827484131,446.775
384.12210083,449.35
384.416778564,446.2
384.711425781,429.125
385.006011963,433.15
385.300628662,430.4
385.595184326,437.575
385.88973999,444.45
386.184295654,461.85
386.478820801,451.675
386.77331543,475.75
387.067840576,473.825
387.362335205,486.15
387.656768799,496.775
387.951202393,498.125
388.245635986,501.525
388.540039062,512.2
388.834472656,512.775
389.128875732,512.65
389.423187256,478.65
389.717559814,489.675
390.011871338,487.5
390.306182861,491.925
390.600463867,499.725
390.894775391,508.35
391.189025879,508.3
391.48324585,507.95
391.777526855,513.1
392.071685791,528.55
392.365875244,530.1
392.660064697,539.7
392.95425415,569.6
393.248382568,560.45
393.542510986,526.175
393.836608887,506.675
394.130706787,516.675
394.424804688,506.1
394.71887207,509.975
395.012878418,513.525
395.306915283,507.0
395.600921631,497.025
395.894927979,497.95
396.188903809,499.45
396.482879639,496.7
396.776794434,513.725
397.070739746,517.05
397.364654541,521.4
397.658538818,547.425
397.952423096,558.775
398.246307373,542.85
398.540100098,596.8
398.833953857,584.45
399.127746582,545.65
399.421508789,533.3
399.715301514,537.8
400.009063721,531.825
400.30279541,516.225
400.596496582,503.875
400.890258789,522.525
401.183929443,528.5
401.47756958,523.5
401.771240234,498.05
402.064880371,515.45
402.35848999,507.825
402.652130127,506.1
402.945678711,500.625
403.239257812,503.525
403.532775879,488.3
403.82635498,492.95
404.119842529,486.85
404.413360596,488.575
404.706848145,496.4
405.000274658,496.125
405.293762207,490.675
405.587188721,501.5
405.880584717,486.1
406.17401123,467.0
406.467407227,460.975
406.760742188,459.475
407.054107666,454.975
407.347442627,451.9
407.640716553,446.675
407.934051514,459.575
408.227325439,463.275
408.520568848,479.25
408.813842773,485.275
409.107086182,466.95
409.400238037,472.725
409.693450928,460.85
409.986633301,472.1
410.279754639,467.475
410.572875977,431.925
410.86605835,435.225
411.159118652,434.1
411.452209473,434.875
411.745330811,417.2
412.038360596,421.8
412.331390381,425.925
412.624420166,429.775
412.917388916,418.875
413.210388184,415.025
413.503387451,400.775
413.796295166,392.825
414.089233398,382.85
414.382141113,373.65
414.675048828,366.425
414.967926025,375.775
415.260803223,359.75
415.55368042,368.375
415.846466064,374.375
416.139282227,370.425
416.432098389,390.3
416.724853516,381.6
417.017608643,374.225
417.31036377,383.325
417.603088379,394.525
417.895782471,391.6
418.188476562,390.325
418.481140137,392.9
418.773803711,398.8
419.066436768,394.175
419.359039307,400.425
419.651641846,402.55
419.944244385,404.05
420.236816406,400.75
420.529327393,407.175
420.821899414,422.175
421.114379883,412.85
421.406860352,434.325
421.699371338,449.25
421.991821289,449.7
422.284240723,432.15
422.576721191,420.625
422.869110107,404.525
423.161468506,406.925
423.453857422,411.05
423.74621582,397.925
424.038543701,391.175
424.330871582,384.125
424.623168945,367.9
424.915435791,392.125
425.207702637,389.15
425.499969482,383.7
425.792205811,381.525
426.084411621,356.9
426.376617432,362.025
426.668762207,365.225
426.9609375,359.975
427.253082275,364.875
427.545196533,402.35
427.837310791,376.8
428.129425049,349.825
428.421447754,374.55
428.713531494,369.525
429.005554199,378.825
429.297576904,370.675
429.589599609,414.925
429.881561279,429.825
430.173522949,417.05
430.465484619,410.4
430.757415771,426.125
431.049316406,405.625
431.341186523,377.3
431.633117676,372.625
431.924957275,351.4
432.21673584,344.15
432.508636475,364.2
432.800415039,358.075
433.092163086,350.95
433.383972168,347.175
433.675689697,400.35
433.967437744,436.925
434.259155273,360.675
434.550872803,348.95
434.842498779,339.25
435.134185791,355.725
435.425842285,362.55
435.717437744,352.075
436.009063721,334.3
436.30065918,349.4
436.592224121,381.475
436.883758545,363.125
437.175323486,335.65
437.466827393,338.675
437.758331299,338.35
438.049804688,333.0
438.341247559,344.875
438.63269043,352.55
438.924163818,349.125
439.215515137,352.875
439.50692749,333.0
439.798309326,336.575
440.089660645,339.975
440.380981445,329.525
440.672332764,334.45
440.963623047,354.05
441.254882812,393.275
441.546173096,406.7
441.837402344,387.4
442.128631592,365.675
442.41986084,375.475
442.711029053,354.85
443.002197266,370.5
443.293365479,383.425
443.584503174,397.75
443.875610352,398.55
444.166717529,369.125
444.457794189,381.5
444.748840332,379.9
445.039916992,381.6
445.330932617,379.725
445.621948242,366.0
445.912963867,349.9
446.203918457,377.05
446.494812012,395.15
446.785827637,378.275
447.076721191,360.125
447.367584229,364.525
447.658447266,366.55
447.949371338,364.8
448.24017334,363.95
448.530975342,351.1
448.821838379,371.625
449.112579346,372.5
449.40335083,374.325
449.694152832,365.3
449.984863281,375.95
450.27557373,369.4
450.56628418,379.6
450.856933594,376.35
451.147583008,368.4
451.438262939,358.775
451.728881836,377.875
452.019470215,384.25
452.310089111,368.5
452.600646973,361.825
452.891174316,372.35
453.181732178,357.525
453.472229004,348.475
453.762695312,356.525
454.053222656,356.425
454.343658447,358.175
454.634063721,343.625
454.924530029,353.05
455.214935303,363.825
455.505279541,369.2
455.795715332,363.325
456.086029053,336.725
456.376312256,350.4
456.666687012,340.875
456.956939697,347.7
457.247192383,352.55
457.537445068,361.45
457.827728271,366.725
458.117919922,370.125
458.408081055,352.4
458.698303223,369.875
458.988433838,366.8
459.278564453,354.55
459.568725586,367.375
459.858825684,378.7
460.148864746,359.825
460.438995361,359.0
460.729034424,353.65
461.019042969,357.6
461.309082031,365.775
461.599060059,362.1
461.889007568,317.625
462.179016113,305.875
462.468933105,323.5
462.75881958,340.6
463.048736572,318.0
463.338592529,336.725
463.628448486,366.35
463.918365479,336.275
464.2081604,346.675
464.497924805,344.025
464.787780762,355.9
465.077514648,383.9
465.367218018,346.025
465.657012939,371.65
465.946685791,400.35
466.236358643,379.2
466.526092529,325.675
466.815734863,319.375
467.105316162,316.65
467.394927979,321.025
467.684570312,305.275
467.974121094,324.8
468.263671875,326.625
468.553222656,308.05
468.842773438,302.9
469.132232666,293.025
469.42175293,294.225
469.711212158,293.825
470.000640869,278.0
470.290100098,288.625
470.579498291,286.75
470.868835449,286.125
471.158294678,285.275
471.447601318,283.525
471.736907959,286.7
472.026275635,293.5
472.315551758,287.35
472.604797363,295.925
472.894104004,299.225
473.183319092,312.325
473.47253418,302.1
473.761779785,302.15
474.05090332,302.15
474.340087891,300.0
474.629241943,291.4
474.918365479,303.225
475.207427979,323.25
475.496551514,328.75
475.785614014,304.425
476.074645996,294.075
476.363708496,297.825
476.652679443,312.1
476.941650391,295.575
477.230682373,283.325
477.519622803,283.0
477.808502197,302.175
478.097412109,307.875
478.386352539,321.625
478.675201416,284.975
478.964050293,281.875
479.25289917,295.675
479.541717529,303.375
479.830474854,294.025
480.11932373,314.825
480.408050537,331.325
480.696777344,297.45
480.985534668,293.45
481.274200439,294.075
481.562866211,314.35
481.851593018,323.9
482.140197754,313.2
482.428833008,303.325
482.717468262,288.625
483.006011963,288.775
483.294586182,297.65
483.5831604,307.75
483.871673584,289.4
484.16015625,301.45
484.448699951,316.25
484.7371521,326.375
485.02557373,313.5
485.314025879,304.15
485.602416992,403.85
485.890777588,1181.1
486.179199219,1084.9
486.467559814,363.8
486.755859375,295.3
487.044219971,323.325
487.332519531,335.275
487.620758057,308.9
487.908966064,281.85
488.197265625,275.5
488.485473633,260.275
488.773651123,269.225
489.061859131,264.125
489.350006104,259.825
489.638122559,259.375
489.926300049,255.475
490.214355469,262.575
490.502441406,262.3
490.790527344,247.75
491.078552246,264.225
491.366546631,268.6
491.654602051,245.2
491.942565918,256.525
492.230499268,246.9
492.518493652,243.75
492.806396484,253.9
493.094268799,249.25
493.382202148,249.625
493.670074463,254.925
493.957885742,246.95
494.245727539,246.275
494.533508301,251.625
494.821289062,242.225
495.109100342,236.225
495.396850586,227.525
495.684539795,230.5
495.972290039,242.8
496.25994873,272.0
496.547607422,272.2
496.835296631,260.375
497.122894287,229.475
497.410522461,228.9
497.6980896,230.8
497.985687256,225.75
498.273223877,223.5
498.560760498,239.2
498.848266602,237.1
499.135772705,235.375
499.423217773,249.2
499.710693359,241.875
499.998138428,243.525
500.285522461,236.7
500.572937012,224.2
500.860290527,229.65
501.147644043,236.775
501.434997559,253.65
501.722290039,250.9
502.00958252,226.075
502.296875,248.825
502.584106445,246.375
502.871337891,233.6
503.158599854,241.675
503.445770264,244.025
503.732910156,242.6
504.020141602,230.475
504.307220459,229.925
504.594329834,236.5
504.881469727,226.75
505.168518066,233.65
505.455535889,239.075
505.742614746,230.35
506.029632568,228.525
506.316589355,236.05
506.603637695,247.7
506.890563965,234.075
507.177459717,214.525
507.464385986,202.625
507.751312256,230.4
508.038146973,228.85
508.325012207,221.1
508.611877441,228.925
508.898681641,229.725
509.185424805,218.225
509.472259521,213.4
509.759002686,213.25
510.045715332,228.0
510.332458496,220.6
510.619140625,224.5
510.905761719,209.8
511.192504883,213.325
511.479095459,217.825
511.765686035,213.475
512.052307129,206.7
512.338928223,208.375
512.625427246,206.225
512.91204834,213.85
513.198486328,200.55
513.484985352,213.775
513.77142334,204.175
514.057922363,209.875
514.344299316,202.875
514.63079834,198.325
514.917175293,197.675
515.203552246,203.575
515.489868164,192.825
515.776245117,206.775
516.0625,203.975
516.348815918,199.825
516.635070801,199.8
516.921325684,204.1
517.207580566,196.4
517.493774414,187.275
517.779968262,202.925
518.066101074,197.925
518.352294922,192.275
518.638366699,191.9
518.924499512,201.8
519.210632324,201.95
519.496643066,205.175
519.782714844,196.35
520.068786621,196.325
520.354736328,196.175
520.640686035,183.95
520.926757812,186.75
521.212646484,198.6
521.498535156,195.8
521.784484863,192.45
522.0703125,180.85
522.356262207,185.15
522.642089844,195.65
522.927856445,189.275
523.213684082,190.825
523.499511719,193.925
523.78527832,194.475
524.070983887,196.425
524.356750488,192.725
524.64239502,193.05
524.928039551,194.825
525.213806152,197.925
525.499389648,199.225
525.784973145,195.125
526.070617676,193.75
526.356140137,192.875
526.641723633,191.9
526.927307129,204.6
527.212768555,201.425
527.498291016,198.025
527.783752441,200.95
528.069213867,196.85
528.354675293,201.6
528.640014648,213.4
528.925476074,213.7
529.21081543,208.675
529.496154785,201.675
529.781555176,200.275
530.066833496,207.75
530.352050781,207.65
530.637390137,202.35
530.922607422,206.625
531.207824707,211.95
531.493041992,202.65
531.778198242,210.975
532.063354492,204.15
532.348571777,202.925
532.633666992,207.4
532.918762207,214.125
533.203857422,215.2
533.488891602,217.8
533.773925781,218.875
534.059020996,206.8
534.343933105,213.525
534.628967285,205.675
534.91394043,217.85
535.198852539,213.65
535.483703613,212.225
535.768676758,206.425
536.053527832,217.225
536.338317871,207.275
536.62322998,198.425
536.90802002,195.875
537.192810059,194.675
537.477539062,210.6
537.762329102,207.85
538.047058105,215.05
538.331726074,211.7
538.616455078,215.625
538.901123047,216.525
539.18572998,218.525
539.470397949,223.775
539.755004883,224.65
540.039550781,213.9
540.32409668,216.25
540.608703613,209.075
540.893188477,217.9
541.17767334,225.4
541.462158203,225.275
541.746643066,218.8
542.031066895,223.425
542.315429688,223.525
542.59979248,226.55
542.884216309,228.35
543.168579102,226.35
543.452941895,225.95
543.737243652,231.425
544.021484375,234.275
544.305725098,225.325
544.590026855,224.75
544.874267578,226.825
545.158447266,235.225
545.442626953,236.225
545.726806641,223.8
546.010925293,229.025
546.29510498,226.225
546.579162598,221.025
546.863220215,226.275
547.147277832,233.9
547.431335449,239.5
547.715332031,242.2
547.999328613,246.5
548.283325195,249.225
548.567260742,243.6
548.851135254,236.5
549.135070801,235.325
549.419006348,236.675
549.702819824,230.0
549.986755371,238.275
550.270507812,238.325
550.554321289,246.425
550.83807373,240.925
551.121826172,235.75
551.405517578,245.05
551.689331055,249.575
551.973022461,258.025
552.256652832,268.35
552.540344238,266.8
552.823974609,263.975
553.107543945,257.6
553.391174316,262.875
553.674743652,264.825
553.958251953,270.275
554.241821289,266.5
554.525268555,261.075
554.808776855,260.8
555.092285156,281.5
555.375671387,285.9
555.659057617,283.025
555.942504883,283.15
556.225891113,285.1
556.509216309,289.7
556.792541504,280.175
557.075866699,275.0
557.359130859,285.075
557.64239502,275.575
557.92565918,291.4
558.208862305,292.425
558.49206543,283.7
558.77532959,287.475
559.058410645,284.7
559.341552734,282.6
559.624694824,298.275
559.907775879,292.75
560.190856934,307.625
560.473937988,305.775
560.756896973,309.5
561.039978027,313.575
561.322937012,309.0
561.605895996,303.625
561.88885498,304.675
562.171813965,300.6
562.454650879,311.05
562.737548828,300.675
563.020446777,302.775
563.303283691,315.45
563.58605957,307.075
563.868896484,317.4
564.151672363,318.15
564.434387207,317.95
564.717163086,316.875
564.99987793,315.575
565.282531738,325.275
565.565185547,326.2
565.847839355,319.0
566.130432129,323.1
566.413085938,325.225
566.695678711,331.05
566.978149414,339.15
567.260681152,347.1
567.543273926,357.575
567.825744629,336.175
568.108154297,344.55
568.390686035,350.25
568.673095703,362.675
568.955505371,366.45
569.237854004,371.425
569.520202637,381.05
569.802490234,406.45
570.084838867,402.025
570.367126465,390.5
570.649414062,387.025
570.93170166,415.875
571.213928223,414.975
571.496154785,401.975
571.778381348,412.675
572.06048584,432.075
572.342590332,402.275
572.624755859,376.425
572.906860352,381.2
573.188903809,430.05
573.470947266,450.225
573.752990723,434.225
574.03503418,428.225
574.317016602,468.55
574.598937988,445.825
574.88092041,440.95
575.162841797,450.3
575.444763184,427.925
575.726623535,408.375
576.008483887,414.35
576.290344238,441.45
576.572143555,454.25
576.853881836,448.575
577.135681152,462.6
577.417419434,454.975
577.699157715,515.25
577.980895996,531.9
578.262573242,482.5
578.544128418,453.95
578.825866699,447.85
579.107421875,431.725
579.388977051,433.775
579.670593262,460.1
579.952148438,454.125
580.233642578,463.925
580.515197754,461.225
580.796691895,446.35
581.078125,452.575
581.359619141,567.4
581.640991211,579.2
581.922363281,500.325
582.203796387,507.95
582.485107422,480.475
582.766418457,455.925
583.047790527,445.475
583.329040527,441.8
583.610290527,428.525
583.891540527,441.425
584.172790527,454.4
584.453918457,462.425
584.735107422,464.7
585.016235352,490.6
585.297363281,499.675
585.578552246,480.275
585.859619141,480.6
586.140625,470.7
586.421630859,450.25
586.702697754,454.575
586.983642578,465.275
587.264648438,482.45
587.545654297,480.775
587.826477051,469.05
588.107421875,451.35
588.388305664,454.0
588.669189453,466.625
588.950012207,463.1
589.230834961,448.125
589.511657715,470.475
589.792358398,468.05
590.073120117,464.95
590.353881836,471.15
590.63458252,470.7
590.915283203,459.625
591.195922852,467.4
591.4765625,469.55
591.757202148,467.725
592.037780762,464.3
592.31829834,464.275
592.598937988,488.225
592.879394531,493.525
593.159912109,498.875
593.440429688,489.1
593.720825195,488.0
594.001281738,492.325
594.281677246,479.3
594.562072754,485.975
594.842407227,495.175
595.122802734,488.45
595.403137207,493.525
595.683410645,489.55
595.963623047,487.95
596.243896484,492.725
596.524169922,482.425
596.804382324,494.15
597.084533691,492.125
597.364746094,493.1
597.644836426,500.4
597.924987793,488.3
598.205078125,504.0
598.485107422,493.675
598.765197754,512.25
599.045227051,509.725
599.325195312,507.9
599.605224609,498.575
599.885192871,503.275
600.165100098,505.7
600.445007324,504.2
600.724914551,504.275
601.004760742,501.85
601.284667969,514.05
601.56451416,504.5
601.844238281,506.525
602.124084473,512.55
602.403808594,513.55
602.683532715,516.325
602.963256836,516.35
603.242919922,513.15
603.522583008,521.525
603.802246094,517.95
604.081848145,520.625
604.36138916,508.7
604.641052246,517.125
604.920532227,512.8
605.200073242,521.125
605.479614258,519.225
605.759094238,527.475
606.038574219,530.4
606.317932129,526.2
606.597412109,515.875
606.87677002,522.2
607.15612793,533.05
607.435546875,527.3
607.714782715,531.075
607.99407959,517.225
608.273376465,520.25
608.552612305,527.55
608.831848145,527.6
609.111083984,527.1
609.390258789,521.55
609.669433594,521.0
609.948608398,528.8
610.227722168,529.275
610.506713867,523.525
610.785888672,533.475
611.064880371,526.475
611.34387207,527.725
611.622924805,535.8
611.901916504,529.725
612.180847168,526.275
612.459777832,523.175
612.738647461,518.2
613.01751709,520.75
613.296447754,510.1
613.575317383,522.025
613.854064941,507.925
614.132873535,505.675
614.411621094,502.65
614.690368652,502.475
614.969177246,502.925
615.247802734,489.75
615.526489258,489.6
615.805175781,488.3
616.08380127,473.3
616.362365723,465.275
616.640991211,469.325
616.919555664,457.425
617.198059082,465.75
617.4765625,490.6
617.755126953,498.725
618.033569336,502.2
618.311950684,503.45
618.590454102,503.475
618.868774414,508.225
619.147155762,503.525
619.425598145,502.725
619.703857422,511.225
619.982177734,511.225
620.260498047,517.275
620.538757324,507.575
620.816955566,508.0
621.095214844,490.2
621.373413086,495.9
621.651550293,509.825
621.929748535,509.875
622.207824707,506.1
622.485900879,508.025
622.764038086,500.925
623.042053223,507.375
623.320007324,501.975
623.598083496,511.875
623.876037598,506.85
624.153991699,506.55
624.432006836,506.2
624.709838867,504.8
624.987731934,506.925
625.265563965,500.825
625.543395996,503.4
625.821228027,511.25
626.098999023,500.5
626.376831055,510.15
626.654541016,502.4
626.932250977,514.225
627.209960938,522.075
627.487670898,507.975
627.765319824,518.875
628.04296875,514.825
628.320495605,521.95
628.598083496,518.95
628.875671387,517.6
629.153259277,525.125
629.430725098,533.05
629.708251953,522.5
629.985656738,528.675
630.263122559,527.725
630.540588379,529.525
630.817932129,536.65
631.095275879,540.025
631.372680664,540.975
631.649963379,548.4
631.927246094,549.425
632.204589844,552.825
632.481811523,557.55
632.759033203,574.4
633.036254883,565.025
633.313415527,574.175
633.590576172,574.775
633.867736816,589.95
634.144836426,594.05
634.421875,588.875
634.698913574,607.875
634.976013184,619.275
635.252990723,615.025
635.529968262,609.75
635.807006836,623.45
636.08392334,627.45
636.360839844,608.925
636.637756348,609.825
636.914611816,598.425
637.191467285,596.8
637.468261719,616.4
637.745056152,600.7
638.021789551,608.8
638.298583984,599.1
638.575317383,601.6
638.851989746,595.775
639.12878418,604.8
639.405395508,589.275
639.682006836,603.375
639.958618164,597.375
640.235229492,602.125
640.511779785,603.75
640.788330078,607.025
641.064880371,608.075
641.341308594,602.8
641.617797852,606.825
641.894226074,605.275
642.170654297,600.375
642.44708252,605.975
642.723388672,600.025
642.999755859,597.575
643.276123047,609.525
643.552429199,592.975
643.828674316,594.325
644.104919434,597.95
644.381164551,589.05
644.657348633,596.5
644.933532715,586.475
645.209716797,594.8
645.485839844,590.775
645.761901855,595.15
646.038024902,590.375
646.314086914,598.9
646.590087891,593.425
646.866149902,598.3
647.142150879,590.35
647.41809082,593.25
647.694030762,586.1
647.969970703,580.7
648.245788574,592.275
648.521728516,587.15
648.797546387,582.5
649.073303223,582.35
649.349182129,578.85
649.624938965,587.35
649.900634766,576.6
650.176391602,577.625
650.452087402,576.375
650.727783203,572.225
651.003479004,584.175
651.279052734,578.45
651.554626465,575.425
651.83026123,580.225
652.105773926,580.875
652.381286621,569.225
652.656860352,580.325
652.932312012,580.375
653.207763672,581.45
653.483215332,580.025
653.758605957,574.45
654.033935547,577.75
654.309326172,576.775
654.584716797,571.75
654.859985352,572.05
655.135253906,579.025
655.410583496,575.7
655.685791016,656.85
655.9609375,961.5
656.236206055,962.325
656.511291504,664.425
656.786437988,599.025
657.061645508,574.75
657.336669922,574.425
657.611694336,578.35
657.886779785,576.65
658.161804199,587.625
658.436828613,571.15
658.711791992,577.5
658.986755371,578.75
659.261657715,567.275
659.536621094,570.2
659.811401367,572.575
660.086303711,576.05
660.36114502,576.25
660.635864258,570.1
660.910644531,583.0
661.185424805,577.9
661.460205078,581.6
661.734863281,586.45
662.009521484,585.925
662.284179688,581.975
662.558776855,578.975
662.833435059,582.525
663.108032227,575.175
663.382568359,578.2
663.657043457,582.625
663.93157959,585.2
664.206054688,581.55
664.48046875,577.5
664.755004883,578.6
665.02935791,582.775
665.303710938,575.325
665.578125,587.25
665.852416992,585.875
666.126708984,583.625
666.401062012,589.55
666.675292969,591.375
666.949462891,598.65
667.223754883,586.65
667.497924805,587.7
667.772094727,586.45
668.046264648,578.475
668.3203125,588.725
668.594421387,587.125
668.868469238,593.9
669.14251709,583.15
669.416503906,586.375
669.690551758,593.5
669.964477539,588.375
670.23840332,586.9
670.512329102,589.575
670.786254883,576.45
671.060058594,593.425
671.333984375,584.725
671.607788086,581.4
671.881530762,594.0
672.155334473,594.75
672.429077148,590.3
672.702758789,595.95
672.97644043,584.875
673.25012207,598.4
673.523742676,579.475
673.797302246,581.7
674.070922852,601.275
674.344482422,589.625
674.618041992,588.175
674.891601562,586.775
675.165100098,591.325
675.438476562,591.1
675.711975098,591.1
675.985412598,581.825
676.258789062,582.975
676.532165527,593.275
676.805480957,587.275
677.078796387,584.475
677.352111816,591.2
677.625366211,588.05
677.898620605,587.575
678.171875,598.975
678.445007324,585.1
678.718200684,579.0
678.991394043,588.175
679.264404297,586.35
679.537536621,585.775
679.81060791,585.225
680.083679199,583.175
680.356689453,588.55
680.629699707,584.225
680.902648926,582.25
681.175598145,586.4
681.448547363,586.375
681.721435547,584.725
681.99420166,577.25
682.267150879,581.175
682.539916992,586.425
682.812744141,597.9
683.085510254,588.65
683.358215332,584.775
683.63092041,575.975
683.903625488,584.0
684.176330566,579.075
684.448913574,582.9
684.721557617,578.625
684.99420166,586.0
685.266662598,575.0
685.539245605,575.625
685.811767578,578.6
686.084289551,587.025
686.356689453,582.075
686.629150391,579.25
686.901550293,579.075
687.17401123,584.05
687.446350098,583.95
687.718688965,592.575
687.990966797,592.85
688.263305664,586.1
688.535522461,579.7
688.807739258,583.15
689.079956055,581.875
689.352172852,594.1
689.624328613,587.225
689.896484375,580.2
690.168518066,591.75
690.440612793,589.225
690.71270752,583.575
690.984741211,590.625
691.256713867,592.25
691.528747559,594.5
691.800720215,595.1
692.072631836,588.725
692.344543457,600.75
692.616394043,596.75
692.888244629,591.45
693.160095215,590.275
693.431945801,593.2
693.703674316,593.2
693.975463867,580.25
694.247131348,594.2
694.518859863,592.475
694.790588379,585.65
695.062255859,590.875
695.33380127,580.7
695.60546875,589.375
695.87701416,576.075
696.148498535,586.25
696.42010498,600.15
696.691589355,593.175
696.96307373,600.775
697.234558105,604.225
697.50592041,594.975
697.777282715,593.625
698.048706055,592.225
698.320068359,598.3
698.591308594,597.0
698.862670898,591.675
699.133972168,595.925
699.405151367,591.75
699.676391602,592.5
699.947570801,588.075
700.21875,590.5
700.489868164,589.425
700.761047363,593.95
701.032104492,597.275
701.303100586,583.975
701.57421875,591.775
701.845214844,585.0
702.116149902,593.85
702.387207031,590.525
702.65814209,594.55
702.928955078,602.575
703.199951172,591.225
703.47076416,595.45
703.741577148,591.0
704.012451172,592.9
704.28314209,601.375
704.553955078,586.425
704.824707031,591.4
705.095397949,594.975
705.366027832,594.55
705.63671875,595.375
705.907348633,580.55
706.17791748,585.35
706.448486328,592.775
706.719055176,584.925
706.989562988,589.225
707.260131836,590.45
707.530517578,582.825
707.800964355,589.625
708.071411133,575.375
708.341796875,586.6
708.612182617,583.55
708.882446289,583.075
709.152893066,588.75
709.423156738,585.95
709.693359375,586.625
709.963623047,593.375
710.233825684,589.275
710.503967285,586.025
710.774169922,582.8
711.044311523,576.9
711.31439209,575.525
711.584533691,582.425
711.854553223,576.725
712.124572754,572.5
712.39465332,569.25
712.664611816,570.175
712.934509277,571.775
713.204467773,571.625
713.474365234,581.8
713.74420166,578.05
714.014099121,571.575
714.283874512,579.875
714.553710938,583.375
714.823486328,579.05
715.093200684,573.55
715.362915039,589.05
715.632629395,590.95
715.902282715,581.575
716.171875,580.375
716.441589355,570.2
716.711181641,575.175
716.980712891,580.975
717.250244141,575.15
717.519775391,573.775
717.78918457,576.725
718.058654785,575.875
718.328125,576.375
718.597473145,575.3
718.866882324,571.175
719.136230469,576.825
719.405578613,578.375
719.674865723,582.625
719.944152832,583.7
720.213439941,579.625
720.48260498,587.225
720.75177002,575.525
721.020996094,577.625
721.290100098,583.625
721.559204102,588.1
721.828308105,581.275
722.097351074,580.575
722.366455078,579.65
722.635437012,589.7
722.904418945,574.8
723.173400879,584.4
723.442321777,572.55
723.711181641,572.25
723.980102539,580.425
724.248962402,574.05
724.51776123,568.025
724.786560059,578.4
725.055358887,579.15
725.324035645,580.675
725.592834473,574.2
725.86151123,575.075
726.130187988,576.45
726.398803711,573.15
726.667419434,581.675
726.935974121,574.05
727.204528809,569.4
727.473083496,573.575
727.741638184,566.2
728.010070801,566.2
728.278564453,571.95
728.546936035,575.875
728.815368652,560.775
729.08380127,554.95
729.352111816,566.45
729.620361328,551.95
729.88873291,552.975
730.156982422,569.7
730.425231934,551.375
730.693481445,552.325
730.961669922,567.75
731.229797363,559.05
731.49798584,560.1
731.766113281,575.125
732.034118652,565.625
732.302246094,577.1
732.570251465,575.95
732.838256836,576.65
733.106262207,585.0
733.374145508,584.9
733.642089844,594.3
733.909973145,595.55
734.177856445,597.275
734.445678711,602.575
734.713562012,602.525
734.981323242,597.2
735.249084473,600.575
735.516845703,616.925
735.784545898,611.125
736.052185059,626.1
736.319885254,624.325
736.587524414,624.55
736.855102539,623.5
737.122619629,640.775
737.390197754,638.075
737.657714844,638.175
737.925170898,648.625
738.192749023,645.95
738.460144043,654.475
738.727539062,665.875
738.994995117,662.35
739.262329102,679.6
739.529663086,682.6
739.79699707,682.1
740.06427002,683.275
740.331481934,695.725
740.598754883,694.975
740.865905762,696.675
741.133056641,702.5
741.40032959,698.4
741.667358398,696.025
741.934448242,702.225
742.201599121,705.1
742.468566895,711.125
742.735534668,708.0
743.002563477,705.95
743.26953125,715.325
743.536437988,714.875
743.803405762,726.45
744.0703125,727.125
744.337097168,733.35
744.604003906,729.25
744.870727539,735.2
745.137512207,743.075
745.40423584,737.525
745.670959473,745.5
745.93762207,745.275
746.204284668,745.325
746.470947266,737.325
746.737548828,740.2
747.004089355,744.825
747.270751953,740.175
747.53717041,751.15
747.803710938,747.325
748.070251465,736.85
748.336608887,743.3
748.603027344,737.825
748.869445801,739.2
749.135803223,732.15
749.402099609,740.125
749.668457031,740.25
749.934753418,738.2
750.20098877,727.625
750.467224121,740.85
750.733459473,731.825
750.999572754,748.125
751.26574707,745.075
751.531860352,744.85
751.797912598,742.9
752.064025879,738.15
752.330078125,741.275
752.596069336,740.375
752.862060547,749.5
753.127990723,731.7
753.393920898,732.0
753.659912109,732.9
753.925720215,754.175
754.19152832,735.8
754.457397461,727.5
754.723144531,721.4
754.988952637,728.5
755.254699707,729.45
755.520385742,728.05
755.786071777,729.65
756.051696777,734.7
756.317382812,712.8
756.582946777,723.725
756.848510742,719.4
757.114074707,722.825
757.379577637,719.075
757.645080566,726.175
757.910583496,728.125
758.175964355,717.475
758.441345215,724.825
758.706848145,715.1
758.972106934,725.375
759.237426758,717.725
759.502807617,718.6
759.768005371,715.075
760.03326416,717.25
760.298522949,711.65
760.563659668,727.425
760.828857422,710.15
761.093994141,720.65
761.359130859,714.0
761.624206543,713.85
761.889282227,703.0
762.15423584,706.45
762.419250488,706.125
762.684265137,701.7
762.949157715,706.075
763.214050293,702.95
763.479003906,710.275
763.743835449,695.45
764.008666992,705.5
764.2734375,718.55
764.538208008,712.125
764.802978516,711.5
765.067687988,700.4
765.332397461,707.55
765.597045898,706.5
765.861694336,700.025
766.126342773,694.7
766.390930176,703.0
766.655395508,692.0
766.920043945,703.55
767.184509277,697.075
767.448974609,697.5
767.713439941,705.4
767.977783203,698.05
768.2421875,703.425
768.506591797,699.6
768.770874023,715.825
769.03515625,697.925
769.299499512,692.025
769.563720703,707.625
769.827941895,701.8
770.092163086,710.225
770.356323242,696.075
770.620483398,701.1
770.88458252,703.0
771.148681641,710.875
771.412719727,696.0
771.676757812,700.075
771.940734863,703.1
772.204711914,711.0
772.468688965,700.925
772.73260498,710.4
772.996459961,706.175
773.260314941,638.15
773.524169922,186.75
773.787963867,123.625
774.051696777,120.025
774.315551758,119.95
774.579223633,122.375
774.842895508,121.55
775.106567383,123.725
775.370239258,118.55
775.633789062,125.925
775.897399902,129.8
776.160949707,118.35
776.424499512,124.3
776.687988281,125.475
776.951477051,127.15
777.214904785,123.65
777.47833252,121.625
