191.299911499,99.8
191.603515625,103.925
191.907119751,96.05
192.210693359,103.6
192.514251709,99.45
192.817810059,102.2
193.121368408,102.3
193.42489624,106.7
193.728408813,98.05
194.031936646,99.7
194.33543396,93.125
194.638916016,111.825
194.94241333,99.625
195.245880127,97.975
195.549331665,95.45
195.852767944,100.775
196.156204224,207.1
196.459625244,202.4
196.763015747,202.05
197.066436768,211.7
197.369812012,203.925
197.673187256,208.625
197.9765625,198.775
198.279922485,204.475
198.583251953,198.75
198.886581421,205.1
199.18989563,208.625
199.493209839,208.35
199.79649353,197.9
200.09979248,208.7
200.403076172,201.75
200.706314087,205.95
201.009567261,205.275
201.312820435,205.925
201.616027832,197.125
201.919235229,194.95
202.222457886,196.625
202.525634766,196.9
202.828826904,192.925
203.132003784,193.55
203.435150146,198.375
203.738296509,195.85
204.041412354,192.425
204.344558716,199.425
204.647659302,199.625
204.950759888,201.5
205.253845215,198.725
205.556930542,194.575
205.859985352,198.15
206.163024902,197.0
206.466079712,198.75
206.769104004,210.525
207.072113037,202.2
207.375137329,199.35
207.678131104,204.475
207.981109619,198.725
208.284088135,203.175
208.587036133,200.375
208.889984131,206.75
209.19291687,204.725
209.495849609,206.525
209.798751831,209.425
210.101654053,205.275
210.404556274,207.675
210.707427979,203.525
211.010269165,211.35
211.31312561,211.575
211.615982056,207.575
211.918807983,211.55
212.221618652,210.35
212.524429321,204.55
212.827224731,212.525
213.130004883,210.475
213.432769775,215.575
213.735534668,212.8
214.038269043,216.8
214.341003418,214.7
214.643737793,219.475
214.946456909,224.775
215.249145508,226.1
215.551834106,226.625
215.854507446,229.35
216.157165527,229.05
216.45980835,225.825
216.762451172,233.65
217.065078735,234.35
217.36769104,235.65
217.670303345,233.925
217.972885132,237.35
218.275466919,242.95
218.578048706,233.8
218.880599976,245.525
219.183120728,247.975
219.485656738,249.275
219.788192749,263.275
220.090682983,272.175
220.393188477,292.675
220.695663452,322.775
220.998138428,346.275
221.300582886,390.125
221.603042603,425.425
221.905487061,475.1
222.207901001,538.8
222.510299683,607.325
222.812728882,682.5
223.115097046,772.55
223.41746521,870.65
223.719848633,955.35
224.022171021,1057.075
224.324508667,1158.875
224.626846313,1285.4
224.929168701,1395.1
225.231460571,1498.625
225.533737183,1620.525
225.836013794,1738.975
226.138290405,1836.325
226.440536499,1958.65
226.742767334,2045.95
227.044998169,2140.4
227.347213745,2257.6
227.649429321,2342.95
227.951629639,2419.25
228.253799438,2484.7
228.555953979,2554.725
228.858123779,2614.375
229.160263062,2665.75
229.462371826,2719.55
229.764511108,2770.85
230.066619873,2791.425
230.36869812,2844.3
230.670776367,2895.475
230.972854614,2944.975
231.274902344,2986.2
231.576950073,3022.225
231.878967285,3049.55
232.180999756,3123.925
232.48298645,3150.475
232.784988403,3220.1
233.086975098,3270.725
233.388946533,3318.475
233.69090271,3364.725
233.992858887,3400.0
234.294769287,3404.85
234.596694946,3455.0
234.898605347,3518.05
235.200500488,3549.475
235.502380371,3555.325
235.804244995,3612.15
236.106109619,3590.025
236.407958984,3621.425
236.709777832,3653.375
237.011581421,3692.8
237.313400269,3675.425
237.615203857,3693.7
237.916976929,3714.05
238.21875,3729.05
238.520507812,3740.725
238.822250366,3763.125
239.12399292,3773.45
239.425704956,3791.1
239.727401733,3759.05
240.02911377,3788.95
240.330780029,3803.625
240.632446289,3805.475
240.93409729,3816.525
241.23576355,3851.275
241.537384033,3856.5
241.839004517,3898.775
242.140594482,3906.525
242.442199707,3936.15
242.743774414,3956.9
243.045333862,3981.35
243.346923828,4000.625
243.648452759,4044.575
243.949966431,4051.2
244.251495361,4086.875
244.552993774,4122.9
244.854492188,4131.575
245.155975342,4135.225
245.457443237,4193.775
245.758880615,4228.7
246.060333252,4239.675
246.36177063,4241.975
246.66317749,4263.55
246.964569092,4299.875
247.265945435,4316.425
247.567337036,4358.525
247.86869812,4381.55
248.170059204,4442.675
248.471389771,4451.0
248.772705078,4522.85
249.074035645,4605.05
249.375335693,4651.425
249.676620483,4707.825
249.977890015,4775.175
250.279159546,4866.325
250.58039856,4926.05
250.881637573,4992.9
251.182876587,5054.775
251.484069824,5187.425
251.785263062,5255.95
252.086456299,5382.675
252.387619019,5418.075
252.688781738,5502.7
252.989929199,5579.2
253.291061401,5684.15
253.592178345,5777.5
253.893280029,5841.5
254.194366455,5920.175
254.49546814,5969.175
254.796524048,6011.65
255.097579956,6084.825
255.398620605,6117.45
255.699645996,6198.075
256.000640869,6209.775
256.30166626,6243.025
256.602661133,6277.175
256.903656006,6280.25
257.204589844,6283.525
257.505523682,6322.825
257.80645752,6350.3
258.107391357,6332.625
258.408294678,6299.7
258.709228516,6311.9
259.010070801,6279.3
259.310943604,6283.15
259.611846924,6225.075
259.912658691,6188.025
260.213500977,6185.25
260.514343262,6157.45
260.815124512,6090.125
261.115936279,6061.075
261.416717529,6026.9
261.717468262,6036.2
262.018218994,6021.725
262.318969727,6018.725
262.619689941,6066.3
262.920410156,6120.325
263.221130371,6162.3
263.521789551,6216.975
263.822479248,6258.3
264.123138428,6341.75
264.42376709,6349.85
264.72442627,6365.5
265.025054932,6422.575
265.325622559,6417.35
265.626251221,6431.825
265.926818848,6442.35
266.227386475,6396.925
266.527954102,6378.375
266.828460693,6404.2
267.12902832,6312.525
267.429534912,6282.65
267.730010986,6297.925
268.030517578,6234.4
268.330993652,6221.475
268.631439209,6165.1
268.931915283,6183.375
269.232299805,6169.55
269.532745361,6154.0
269.8331604,6122.875
270.133544922,6130.175
270.433929443,6138.775
270.734313965,6126.95
271.034637451,6160.925
271.334991455,6137.65
271.635314941,6217.775
271.935638428,6256.35
272.235931396,6321.025
272.536254883,6345.925
272.836486816,6430.025
273.136749268,6518.55
273.437011719,6651.05
273.737213135,6762.95
274.037445068,6873.875
274.337677002,6977.275
274.6378479,7107.225
274.938049316,7260.625
275.238220215,7373.925
275.538360596,7545.225
275.838500977,7628.475
276.138641357,7811.7
276.438751221,7849.75
276.738830566,8003.075
277.03894043,8089.675
277.338989258,8230.675
277.639038086,8360.45
277.939056396,8420.025
278.239105225,8521.475
278.539093018,8613.975
278.839141846,8684.675
279.139129639,8769.3
279.439086914,8871.375
279.739044189,8945.975
280.039001465,9037.875
280.338928223,9106.925
280.63885498,9163.875
280.938781738,9212.275
281.238647461,9271.125
281.538513184,9287.75
281.838409424,9357.05
282.138244629,9407.3
282.438079834,9408.1
282.737945557,9441.975
283.037719727,9450.575
283.337524414,9499.45
283.637298584,9545.425
283.937072754,9545.375
284.236816406,9563.175
284.536560059,9557.1
284.836303711,9563.0
285.136016846,9632.925
285.43572998,9637.8
285.735412598,9614.425
286.035064697,9620.95
286.334747314,9674.75
286.634368896,9705.875
286.933990479,9612.35
287.233642578,9542.1
287.533203125,9541.6
287.832824707,9456.55
288.132385254,9352.375
288.431945801,9196.525
288.731506348,9022.675
289.031036377,8832.2
289.330566406,8691.525
289.630065918,8669.175
289.92956543,8635.35
290.229034424,8752.75
290.528503418,8922.6
290.827941895,9148.625
291.127380371,9294.875
291.42678833,9429.025
291.726226807,9585.35
292.025604248,9625.2
292.324981689,9659.175
292.624359131,9690.275
292.923736572,9708.35
293.223052979,9710.8
293.522369385,9661.75
293.821685791,9602.2
294.12097168,9593.675
294.420257568,9561.55
294.719543457,9541.925
295.018768311,9486.125
295.318023682,9453.225
295.617248535,9362.325
295.916442871,9278.95
296.215667725,9196.85
296.514862061,9029.15
296.813995361,8799.875
297.11315918,8559.325
297.412322998,8391.225
297.711425781,8337.075
298.010559082,8533.925
298.309631348,8752.875
298.608734131,9007.175
298.907806396,9218.35
299.206848145,9393.375
299.505889893,9473.1
299.804901123,9616.575
300.103912354,9665.475
300.402954102,9779.85
300.701904297,9825.725
301.00088501,9885.0
301.299835205,9955.525
301.5987854,10003.2
301.897735596,10128.875
302.196624756,10170.75
302.495513916,10261.875
302.794403076,10253.625
303.093292236,10323.575
303.392120361,10418.775
303.690979004,10498.325
303.989837646,10551.175
304.288604736,10597.75
304.587402344,10555.6
304.886199951,10647.15
305.184967041,10683.75
305.483734131,10742.925
305.782501221,10766.25
306.081176758,10777.225
306.37991333,10826.275
306.678619385,10809.45
306.977294922,10822.5
307.275970459,10864.75
307.574645996,10863.125
307.873260498,10822.725
308.171875,10850.175
308.470489502,10843.875
308.769104004,10733.175
309.067687988,10734.925
309.366241455,10741.8
309.664794922,10688.025
309.963348389,10702.25
310.261871338,10727.55
310.560394287,10697.35
310.858856201,10721.825
311.157348633,10774.325
311.455810547,10761.425
311.754272461,10803.3
312.052703857,10891.075
312.351135254,10898.75
312.649536133,10877.425
312.947937012,10862.3
313.246307373,10895.15
313.544647217,10883.575
313.843017578,10821.625
314.141387939,10795.725
314.439697266,10831.325
314.738006592,10708.775
315.036315918,10636.5
315.334564209,10560.7
315.6328125,10499.2
315.931091309,10427.325
316.229309082,10261.65
316.527526855,10127.925
316.825744629,10082.4
317.123901367,9927.675
317.422088623,9887.325
317.720245361,9881.275
318.0184021,9879.475
318.316497803,9950.825
318.614654541,9996.2
318.912750244,10083.325
319.21081543,10077.675
319.50894165,10101.675
319.806945801,10107.35
320.104980469,10100.05
320.403045654,10078.525
320.701049805,10062.675
320.999023438,10029.2
321.297027588,9971.2
321.595001221,9949.975
321.892913818,9888.325
322.190887451,9823.025
322.488830566,9751.075
322.786712646,9688.6
323.084625244,9592.225
323.382507324,9570.375
323.680358887,9474.575
323.978210449,9378.25
324.276062012,9332.225
324.573852539,9271.5
324.871643066,9216.6
325.169464111,9101.425
325.467224121,9055.2
325.764984131,8957.5
326.062744141,8891.225
326.360473633,8759.175
326.658203125,8712.825
326.955871582,8603.5
327.253570557,8541.175
327.551239014,8464.05
327.848907471,8394.975
328.146514893,8311.6
328.444152832,8237.275
328.741790771,8143.325
329.039367676,8087.85
329.336914062,8013.625
329.634521484,7959.2
329.932067871,7886.55
330.229553223,7778.175
330.527160645,7730.925
330.824615479,7672.55
331.12210083,7582.975
331.419586182,7441.2
331.717041016,7391.7
332.014465332,7291.9
332.311920166,7249.35
332.609313965,7177.3
332.906707764,7144.325
333.204101562,7156.475
333.501495361,7168.075
333.798828125,7197.55
334.096160889,7256.825
334.39352417,7308.375
334.690795898,7370.325
334.988098145,7424.525
335.285400391,7503.15
335.582641602,7505.65
335.879882812,7555.35
336.177124023,7548.025
336.474334717,7642.6
336.77154541,7618.4
337.068725586,7654.825
337.365905762,7657.05
337.66305542,7672.5
337.960205078,7694.775
338.257324219,7718.5
338.554443359,7716.775
338.8515625,7725.4
339.148590088,7732.5
339.445648193,7738.925
339.742736816,7694.125
340.039764404,7706.575
340.336761475,7637.225
340.63381958,7583.15
340.930755615,7529.55
341.227722168,7459.175
341.524688721,7338.95
341.821624756,7299.925
342.118560791,7341.575
342.415496826,7435.275
342.712402344,7567.975
343.009246826,7741.4
343.306121826,7870.6
343.602966309,7939.05
343.899810791,8029.15
344.196624756,8122.05
344.493438721,8171.5
344.79019165,8212.95
345.086975098,8286.425
345.383758545,8350.175
345.680480957,8297.95
345.977203369,8316.3
346.273956299,8385.425
346.570617676,8331.925
346.86730957,8372.5
347.163970947,8376.475
347.460601807,8405.475
347.757232666,8410.75
348.053894043,8390.8
348.350463867,8290.225
348.647064209,8297.3
348.943634033,8267.175
349.24017334,8278.35
349.536712646,8239.225
349.833251953,8225.975
350.129760742,8198.825
350.426208496,8181.7
350.722747803,8162.8
351.019195557,8145.4
351.315612793,8088.75
351.612060547,8073.725
351.908508301,7997.075
352.204864502,7904.35
352.501281738,7861.125
352.797637939,7774.55
353.093963623,7682.075
353.390319824,7589.0
353.686645508,7515.8
353.982940674,7427.5
354.27923584,7366.25
354.575531006,7317.725
354.871765137,7310.6
355.167999268,7256.95
355.464233398,7285.975
355.760437012,7277.775
356.056640625,7280.075
356.352813721,7290.85
356.648956299,7297.975
356.945129395,7310.875
357.241271973,7279.875
357.537384033,7320.025
357.833496094,7229.9
358.129577637,7216.175
358.425628662,7209.925
358.721679688,7176.1
359.017730713,7165.3
359.313720703,7093.125
359.609710693,7041.875
359.905761719,6984.175
360.201721191,6939.0
360.497650146,6857.675
360.793609619,6824.5
361.089538574,6733.175
361.385437012,6656.45
361.681365967,6576.6
361.977233887,6548.15
362.273071289,6469.675
362.568908691,6331.575
362.864746094,6174.475
363.160552979,6067.7
363.456359863,5831.55
363.752166748,5688.375
364.047912598,5572.55
364.343658447,5534.075
364.639434814,5583.15
364.935119629,5623.55
365.230834961,5692.7
365.526550293,5720.575
365.822174072,5750.3
366.117858887,5770.125
366.413482666,5788.475
366.709075928,5830.675
367.004730225,5734.6
367.300292969,5700.325
367.595855713,5781.625
367.891448975,5632.625
368.186981201,5513.1
368.482513428,5465.875
368.778015137,5450.325
369.073547363,5390.175
369.36895752,5412.475
369.664428711,5285.575
369.95993042,5171.975
370.255310059,5087.65
370.550720215,5077.1
370.846160889,5030.125
371.14151001,4999.475
371.436859131,4957.85
371.73223877,4949.725
372.027557373,4880.875
372.322875977,4829.25
372.618164062,4783.175
372.913482666,4739.3
373.208709717,4706.275
373.503967285,4655.375
373.799194336,4583.45
374.094421387,4590.0
374.389648438,4555.575
374.684844971,4538.225
374.979980469,4567.8
375.275146484,4595.35
375.570281982,4634.525
375.865386963,4635.0
376.160522461,4570.5
376.455596924,4588.4
376.750640869,4682.775
377.045715332,4693.425
377.340759277,4733.75
377.635772705,4792.625
377.93081665,4827.3
378.225769043,4913.15
378.520751953,4970.25
378.815734863,4928.8
379.110656738,5126.6
379.405548096,5302.175
379.700500488,5125.625
379.995391846,4868.7
380.290252686,4930.0
380.585083008,5061.375
380.879974365,5100.05
381.17477417,4996.275
381.469543457,4926.65
381.764404297,4912.825
382.059143066,4938.95
382.353912354,5054.9
382.648651123,5137.25
382.943389893,5108.725
383.238067627,4915.875
383.532775879,4933.375
383.827484131,4844.6
384.12210083,4859.3
384.416778564,4804.975
384.711425781,4680.2
385.006011963,4709.225
385.300628662,4693.65
385.595184326,4783.75
385.88973999,4897.675
386.184295654,5013.775
386.478820801,5101.2
386.77331543,5195.625
387.067840576,5317.9
387.362335205,5438.7
387.656768799,5525.725
387.951202393,5558.025
388.245635986,5632.925
388.540039062,5708.425
388.834472656,5782.05
389.128875732,5673.175
389.423187256,5409.875
389.717559814,5351.825
390.011871338,5458.325
390.306182861,5497.125
390.600463867,5510.725
390.894775391,5599.65
391.189025879,5629.45
391.48324585,5625.675
391.777526855,5676.925
392.071685791,5913.8
392.365875244,6022.2
392.660064697,6108.525
392.95425415,6468.95
393.248382568,6454.65
393.542510986,5919.025
393.836608887,5709.8
394.130706787,5706.4
394.424804688,5626.675
394.71887207,5796.725
395.012878418,5767.45
395.306915283,5651.725
395.600921631,5565.4
395.894927979,5520.8
396.188903809,5588.275
396.482879639,5569.6
396.776794434,5801.0
397.070739746,5773.65
397.364654541,5799.525
397.658538818,6238.575
397.952423096,6260.3
398.246307373,6210.175
398.540100098,6828.4
398.833953857,6692.625
399.127746582,6125.65
399.421508789,6125.5
399.715301514,6085.0
400.009063721,5985.9
400.30279541,5801.0
400.596496582,5695.3
400.890258789,5904.75
401.183929443,5997.175
401.47756958,5865.6
401.771240234,5586.9
402.064880371,5617.425
402.35848999,5650.55
402.652130127,5544.6
402.945678711,5629.9
403.239257812,5561.05
403.532775879,5513.725
403.82635498,5550.925
404.119842529,5443.875
404.413360596,5461.0
404.706848145,5504.65
405.000274658,5427.375
405.293762207,5537.875
405.587188721,5578.825
405.880584717,5411.65
406.17401123,5162.475
406.467407227,4970.2
406.760742188,4968.55
407.054107666,5011.6
407.347442627,4930.25
407.640716553,4907.125
407.934051514,4992.0
408.227325439,5043.75
408.520568848,5301.25
408.813842773,5404.75
409.107086182,5179.1
409.400238037,5120.325
409.693450928,5027.25
409.986633301,5178.525
410.279754639,5055.975
410.572875977,4742.475
410.86605835,4676.875
411.159118652,4702.875
411.452209473,4697.5
411.745330811,4523.275
412.038360596,4439.375
412.331390381,4495.025
412.624420166,4539.5
412.917388916,4427.025
413.210388184,4222.15
413.503387451,4182.975
413.796295166,4069.2
414.089233398,3863.225
414.382141113,3772.85
414.675048828,3744.8
414.967926025,3785.875
415.260803223,3739.9
415.55368042,3765.95
415.846466064,3713.875
416.139282227,3814.15
416.432098389,3950.875
416.724853516,3952.75
417.017608643,3881.525
417.31036377,3905.8
417.603088379,4036.4
417.895782471,4005.675
418.188476562,3980.1
418.481140137,4057.8
418.773803711,4115.725
419.066436768,4089.475
419.359039307,4185.6
419.651641846,4170.475
419.944244385,4180.225
420.236816406,4138.325
420.529327393,4354.375
420.821899414,4445.325
421.114379883,4364.0
421.406860352,4681.95
421.699371338,4931.6
421.991821289,4862.2
422.284240723,4644.5
422.576721191,4481.85
422.869110107,4363.975
423.161468506,4294.875
423.453857422,4323.825
423.74621582,4196.775
424.038543701,4031.45
424.330871582,4005.05
424.623168945,3922.3
424.915435791,4072.6
425.207702637,4024.35
425.499969482,3973.225
425.792205811,3911.35
426.084411621,3613.9
426.376617432,3721.3
426.668762207,3792.275
426.9609375,3653.55
427.253082275,3788.6
427.545196533,4268.125
427.837310791,3933.325
428.129425049,3618.975
428.421447754,3844.35
428.713531494,3853.35
429.005554199,3842.75
429.297576904,3869.125
429.589599609,4346.925
429.881561279,4715.375
430.173522949,4465.75
430.465484619,4413.775
430.757415771,4499.925
431.049316406,4236.475
431.341186523,3978.65
431.633117676,3848.8
431.924957275,3487.825
432.21673584,3392.2
432.508636475,3534.8
432.800415039,3549.825
433.092163086,3442.325
433.383972168,3404.75
433.675689697,4250.95
433.967437744,4811.1
434.259155273,3701.025
434.550872803,3340.975
434.842498779,3419.475
435.134185791,3545.525
435.425842285,3578.125
435.717437744,3465.075
436.009063721,3257.375
436.30065918,3424.975
436.592224121,3810.975
436.883758545,3587.55
437.175323486,3281.85
437.466827393,3257.675
437.758331299,3276.025
438.049804688,3305.925
438.341247559,3376.35
438.63269043,3467.9
438.924163818,3451.1
439.215515137,3403.3
439.50692749,3287.075
439.798309326,3301.15
440.089660645,3283.275
440.380981445,3195.075
440.672332764,3215.475
440.963623047,3494.975
441.254882812,4032.775
441.546173096,4245.65
441.837402344,3945.7
442.128631592,3733.1
442.41986084,3717.2
442.711029053,3561.75
443.002197266,3657.05
443.293365479,3865.575
443.584503174,4009.975
443.875610352,3967.8
444.166717529,3686.275
444.457794189,3732.875
444.748840332,3737.475
445.039916992,3655.625
445.330932617,3763.025
445.621948242,3583.65
445.912963867,3372.525
446.203918457,3639.4
446.494812012,3897.175
446.785827637,3664.65
447.076721191,3457.725
447.367584229,3443.9
447.658447266,3414.3
447.949371338,3478.725
448.24017334,3313.575
448.530975342,3262.025
448.821838379,3451.2
449.112579346,3523.3
449.40335083,3475.45
449.694152832,3480.225
449.984863281,3490.025
450.27557373,3401.6
450.56628418,3475.6
450.856933594,3493.1
451.147583008,3321.475
451.438262939,3196.9
451.728881836,3433.95
452.019470215,3529.675
452.310089111,3305.55
452.600646973,3333.825
452.891174316,3386.275
453.181732178,3183.775
453.472229004,3039.375
453.762695312,3168.225
454.053222656,3199.45
454.343658447,3045.6
454.634063721,2969.225
454.924530029,3183.525
455.214935303,3339.875
455.505279541,3420.325
455.795715332,3251.775
456.086029053,3050.025
456.376312256,3012.625
456.666687012,3054.75
456.956939697,3152.875
457.247192383,3155.475
457.537445068,3254.725
457.827728271,3463.0
458.117919922,3395.15
458.408081055,3308.85
458.698303223,3512.25
458.988433838,3430.475
459.278564453,3223.8
459.568725586,3558.175
459.858825684,3664.5
460.148864746,3318.65
460.438995361,3274.125
460.729034424,3328.275
461.019042969,3346.55
461.309082031,3567.025
461.599060059,3436.975
461.889007568,2911.05
462.179016113,2716.65
462.468933105,2981.65
462.75881958,3117.6
463.048736572,2821.425
463.338592529,3130.3
463.628448486,3530.65
463.918365479,3183.225
464.2081604,3382.775
464.497924805,3342.275
464.787780762,3487.175
465.077514648,3814.5
465.367218018,3391.975
465.657012939,3616.05
465.946685791,4087.625
466.236358643,3624.775
466.526092529,3023.15
466.815734863,3020.1
467.105316162,2946.025
467.394927979,2958.15
467.684570312,2810.15
467.974121094,2910.4
468.263671875,3044.95
468.553222656,2782.325
468.842773438,2669.325
469.132232666,2551.5
469.42175293,2577.475
469.711212158,2533.2
470.000640869,2411.25
470.290100098,2472.8
470.579498291,2511.775
470.868835449,2525.675
471.158294678,2458.75
471.447601318,2437.925
471.736907959,2536.0
472.026275635,2607.875
472.315551758,2587.575
472.604797363,2577.6
472.894104004,2725.25
473.183319092,2859.725
473.47253418,2845.9
473.761779785,2833.9
474.05090332,2755.2
474.340087891,2683.075
474.629241943,2626.6
474.918365479,2797.675
475.207427979,3127.875
475.496551514,3165.5
475.785614014,2850.3
476.074645996,2622.675
476.363708496,2725.0
476.652679443,2896.625
476.941650391,2694.725
477.230682373,2502.575
477.519622803,2513.9
477.808502197,2687.9
478.097412109,2990.875
478.386352539,2953.675
478.675201416,2642.75
478.964050293,2503.85
479.25289917,2728.775
479.541717529,2810.65
479.830474854,2612.9
480.11932373,3009.45
480.408050537,3242.625
480.696777344,2767.825
480.985534668,2637.05
481.274200439,2752.625
481.562866211,3030.45
481.851593018,3072.05
482.140197754,2973.675
482.428833008,2794.4
482.717468262,2551.4
483.006011963,2596.225
483.294586182,2723.5
483.5831604,2774.175
483.871673584,2636.975
484.16015625,2800.325
484.448699951,3069.85
484.7371521,3111.175
485.02557373,3116.65
485.314025879,2819.625
485.602416992,4372.25
485.890777588,15302.15
486.179199219,13760.9
486.467559814,3712.125
486.755859375,2686.375
487.044219971,3134.825
487.332519531,3365.45
487.620758057,2872.95
487.908966064,2589.175
488.197265625,2344.5
488.485473633,2236.0
488.773651123,2381.55
489.061859131,2369.65
489.350006104,2316.05
489.638122559,2231.35
489.926300049,2271.325
490.214355469,2203.2
490.502441406,2159.775
490.790527344,2067.175
491.078552246,2294.35
491.366546631,2290.375
491.654602051,2017.225
491.942565918,2112.775
492.230499268,2157.95
492.518493652,2123.875
492.806396484,2167.175
493.094268799,2053.225
493.382202148,2116.125
493.670074463,2239.475
493.957885742,2072.225
494.245727539,2052.0
494.533508301,2243.05
494.821289062,2124.45
495.109100342,1935.875
495.396850586,1883.15
495.684539795,1836.15
495.972290039,2086.05
496.25994873,2481.375
496.547607422,2493.7
496.835296631,2282.375
497.122894287,1903.4
497.410522461,1821.55
497.6980896,1815.9
497.985687256,1781.25
498.273223877,1900.675
498.560760498,1983.625
498.848266602,2018.05
499.135772705,1980.6
499.423217773,2025.825
499.710693359,2157.85
499.998138428,2079.5
500.285522461,1891.9
500.572937012,1784.925
500.860290527,1858.775
501.147644043,1990.825
501.434997559,2243.325
501.722290039,2097.1
502.00958252,1816.0
502.296875,2147.725
502.584106445,2109.525
502.871337891,1896.6
503.158599854,1995.425
503.445770264,2088.975
503.732910156,2062.85
504.020141602,1838.825
504.307220459,1820.15
504.594329834,1873.875
504.881469727,1780.675
505.168518066,1871.5
505.455535889,1948.975
505.742614746,1802.75
506.029632568,1722.05
506.316589355,1949.35
506.603637695,2064.525
506.890563965,1823.475
507.177459717,1618.875
507.464385986,1531.525
507.751312256,1797.85
508.038146973,1904.475
508.325012207,1734.725
508.611877441,1793.95
508.898681641,1813.225
509.185424805,1614.4
509.472259521,1574.45
509.759002686,1674.4
510.045715332,1700.9
510.332458496,1645.55
510.619140625,1713.975
510.905761719,1609.875
511.192504883,1593.25
511.479095459,1653.55
511.765686035,1594.7
512.052307129,1484.475
512.338928223,1438.1
512.625427246,1506.025
512.91204834,1574.525
513.198486328,1553.975
513.484985352,1508.625
513.77142334,1413.85
514.057922363,1474.825
514.344299316,1468.75
514.63079834,1421.45
514.917175293,1406.0
515.203552246,1291.5
515.489868164,1269.575
515.776245117,1411.5
516.0625,1463.225
516.348815918,1350.95
516.635070801,1403.25
516.921325684,1464.175
517.207580566,1380.675
517.493774414,1279.05
517.779968262,1277.875
518.066101074,1338.075
518.352294922,1277.425
518.638366699,1278.85
518.924499512,1375.275
519.210632324,1468.85
519.496643066,1427.325
519.782714844,1310.65
520.068786621,1266.825
520.354736328,1215.05
520.640686035,1168.375
520.926757812,1231.95
521.212646484,1318.125
521.498535156,1320.45
521.784484863,1260.025
522.0703125,1179.05
522.356262207,1206.725
522.642089844,1288.475
522.927856445,1287.55
523.213684082,1278.35
523.499511719,1260.475
523.78527832,1296.5
524.070983887,1379.2
524.356750488,1346.1
524.64239502,1300.875
524.928039551,1290.425
525.213806152,1311.3
525.499389648,1299.325
525.784973145,1327.575
526.070617676,1389.425
526.356140137,1342.525
526.641723633,1357.175
526.927307129,1421.325
527.212768555,1431.425
527.498291016,1406.775
527.783752441,1406.225
528.069213867,1375.875
528.354675293,1405.025
528.640014648,1599.575
528.925476074,1683.2
529.21081543,1590.45
529.496154785,1563.825
529.781555176,1526.55
530.066833496,1545.25
530.352050781,1563.55
530.637390137,1552.275
530.922607422,1544.975
531.207824707,1548.125
531.493041992,1532.25
531.778198242,1603.95
532.063354492,1589.3
532.348571777,1526.475
532.633666992,1532.4
532.918762207,1632.65
533.203857422,1746.8
533.488891602,1769.6
533.773925781,1703.45
534.059020996,1672.7
534.343933105,1711.25
534.628967285,1686.45
534.91394043,1705.75
535.198852539,1711.925
535.483703613,1680.875
535.768676758,1593.55
536.053527832,1613.2
536.338317871,1557.65
536.62322998,1499.975
536.90802002,1468.175
537.192810059,1505.875
537.477539062,1587.575
537.762329102,1636.075
538.047058105,1684.325
538.331726074,1729.675
538.616455078,1706.425
538.901123047,1675.75
539.18572998,1731.35
539.470397949,1730.575
539.755004883,1725.7
540.039550781,1676.45
540.32409668,1629.2
540.608703613,1680.15
540.893188477,1798.35
541.17767334,1812.35
541.462158203,1810.775
541.746643066,1754.275
542.031066895,1800.3
542.315429688,1850.725
542.59979248,1843.825
542.884216309,1823.325
543.168579102,1810.675
543.452941895,1821.725
543.737243652,1881.75
544.021484375,1948.95
544.305725098,1934.55
544.590026855,1891.5
544.874267578,1925.7
545.158447266,1998.075
545.442626953,1905.925
545.726806641,1782.45
546.010925293,1820.65
546.29510498,1851.8
546.579162598,1845.275
546.863220215,1886.4
547.147277832,1971.75
547.431335449,2071.05
547.715332031,2141.175
547.999328613,2261.825
548.283325195,2269.2
548.567260742,2094.05
548.851135254,2072.6
549.135070801,2043.025
549.419006348,1915.1
549.702819824,2043.25
549.986755371,2130.725
550.270507812,2078.175
550.554321289,2127.975
550.83807373,2145.25
551.121826172,2095.95
551.405517578,2110.925
551.689331055,2249.375
551.973022461,2534.1
552.256652832,2607.825
552.540344238,2479.475
552.823974609,2457.775
553.107543945,2445.2
553.391174316,2505.65
553.674743652,2582.975
553.958251953,2582.725
554.241821289,2590.575
554.525268555,2526.75
554.808776855,2520.425
555.092285156,2756.875
555.375671387,2833.875
555.659057617,2830.9
555.942504883,2857.4
556.225891113,2907.4
556.509216309,2864.075
556.792541504,2758.175
557.075866699,2830.625
557.359130859,2887.525
557.64239502,2881.05
557.92565918,2977.725
558.208862305,2961.85
558.49206543,2871.55
558.77532959,2891.3
559.058410645,2950.225
559.341552734,2933.725
559.624694824,2992.825
559.907775879,3091.3
560.190856934,3236.725
560.473937988,3228.675
560.756896973,3284.625
561.039978027,3322.4
561.322937012,3249.65
561.605895996,3255.625
561.88885498,3204.425
562.171813965,3205.875
562.454650879,3180.175
562.737548828,3242.225
563.020446777,3308.625
563.303283691,3323.425
563.58605957,3379.4
563.868896484,3410.875
564.151672363,3472.95
564.434387207,3498.975
564.717163086,3478.4
564.99987793,3493.875
565.282531738,3592.725
565.565185547,3521.175
565.847839355,3521.925
566.130432129,3660.475
566.413085938,3617.7
566.695678711,3641.65
566.978149414,3773.325
567.260681152,3967.325
567.543273926,4047.375
567.825744629,3922.75
568.108154297,3970.125
568.390686035,4125.525
568.673095703,4266.6
568.955505371,4324.55
569.237854004,4362.75
569.520202637,4674.4
569.802490234,4958.125
570.084838867,4905.5
570.367126465,4712.775
570.649414062,4726.425
570.93170166,5135.175
571.213928223,5233.875
571.496154785,4955.3
571.778381348,5199.375
572.06048584,5503.85
572.342590332,4954.85
572.624755859,4529.525
572.906860352,4621.125
573.188903809,5410.55
573.470947266,5707.225
573.752990723,5458.725
574.03503418,5572.425
574.317016602,6013.05
574.598937988,5772.5
574.88092041,5624.3
575.162841797,5844.875
575.444763184,5392.675
575.726623535,5099.5
576.008483887,5132.025
576.290344238,5596.6
576.572143555,5873.425
576.853881836,5934.7
577.135681152,5810.475
577.417419434,5874.95
577.699157715,6899.475
577.980895996,7089.1
578.262573242,6334.475
578.544128418,5761.6
578.825866699,5671.2
579.107421875,5330.225
579.388977051,5558.3
579.670593262,6015.95
579.952148438,5819.25
580.233642578,5945.325
580.515197754,6074.575
580.796691895,5687.625
581.078125,5896.475
581.359619141,7666.225
581.640991211,7783.225
581.922363281,6720.8
582.203796387,6793.9
582.485107422,6365.375
582.766418457,5884.125
583.047790527,5713.525
583.329040527,5569.925
583.610290527,5410.625
583.891540527,5543.275
584.172790527,5914.025
584.453918457,5924.175
584.735107422,5988.575
585.016235352,6527.1
585.297363281,6495.05
585.578552246,6257.9
585.859619141,6177.95
586.140625,5922.925
586.421630859,5744.375
586.702697754,5810.175
586.983642578,6042.725
587.264648438,6264.4
587.545654297,6201.45
587.826477051,6108.4
588.107421875,5909.925
588.388305664,5933.925
588.669189453,6044.5
588.950012207,5881.325
589.230834961,5783.425
589.511657715,5847.45
589.792358398,5964.35
590.073120117,5966.15
590.353881836,5914.7
590.63458252,5961.7
590.915283203,5908.65
591.195922852,5885.675
591.4765625,5964.925
591.757202148,5990.325
592.037780762,5964.9
592.31829834,5963.675
592.598937988,6209.225
592.879394531,6422.225
593.159912109,6304.2
593.440429688,6244.525
593.720825195,6207.325
594.001281738,6195.175
594.281677246,6099.875
594.562072754,6107.225
594.842407227,6232.75
595.122802734,6265.75
595.403137207,6247.8
595.683410645,6211.45
595.963623047,6187.575
596.243896484,6126.875
596.524169922,6141.8
596.804382324,6151.3
597.084533691,6189.0
597.364746094,6229.325
597.644836426,6261.175
597.924987793,6215.725
598.205078125,6199.875
598.485107422,6241.75
598.765197754,6369.25
599.045227051,6426.975
599.325195312,6304.475
599.605224609,6257.55
599.885192871,6304.4
600.165100098,6335.525
600.445007324,6291.2
600.724914551,6298.7
601.004760742,6324.575
601.284667969,6328.225
601.56451416,6303.925
601.844238281,6296.75
602.124084473,6321.625
602.403808594,6317.025
602.683532715,6342.1
602.963256836,6354.775
603.242919922,6396.875
603.522583008,6438.175
603.802246094,6384.575
604.081848145,6349.275
604.36138916,6317.7
604.641052246,6358.375
604.920532227,6324.375
605.200073242,6351.7
605.479614258,6380.325
605.759094238,6415.4
606.038574219,6400.925
606.317932129,6327.55
606.597412109,6340.0
606.87677002,6344.45
607.15612793,6397.45
607.435546875,6408.175
607.714782715,6398.975
607.99407959,6357.775
608.273376465,6350.9
608.552612305,6380.05
608.831848145,6385.2
609.111083984,6390.35
609.390258789,6369.5
609.669433594,6365.925
609.948608398,6436.75
610.227722168,6439.15
610.506713867,6348.475
610.785888672,6363.5
611.064880371,6357.8
611.34387207,6358.65
611.622924805,6365.8
611.901916504,6370.575
612.180847168,6296.075
612.459777832,6278.925
612.738647461,6288.15
613.01751709,6281.675
613.296447754,6228.4
613.575317383,6210.275
613.854064941,6126.925
614.132873535,6014.125
614.411621094,5970.625
614.690368652,5929.325
614.969177246,5847.025
615.247802734,5775.95
615.526489258,5754.8
615.805175781,5607.325
616.08380127,5497.65
616.362365723,5390.95
616.640991211,5338.15
616.919555664,5292.3
617.198059082,5415.8
617.4765625,5700.125
617.755126953,5875.9
618.033569336,5922.075
618.311950684,5926.975
618.590454102,5888.775
618.868774414,5867.525
619.147155762,5887.55
619.425598145,5874.125
619.703857422,5892.325
619.982177734,5887.8
620.260498047,5885.425
620.538757324,5864.65
620.816955566,5819.0
621.095214844,5774.6
621.373413086,5786.875
621.651550293,5848.775
621.929748535,5872.45
622.207824707,5851.05
622.485900879,5887.95
622.764038086,5885.775
623.042053223,5922.3
623.320007324,5940.6
623.598083496,5948.925
623.876037598,5921.45
624.153991699,5965.625
624.432006836,5986.05
624.709838867,6000.125
624.987731934,5977.2
625.265563965,5988.575
625.543395996,5995.3
625.821228027,6065.25
626.098999023,6043.55
626.376831055,6091.9
626.654541016,6097.175
626.932250977,6138.25
627.209960938,6191.975
627.487670898,6203.825
627.765319824,6234.825
628.04296875,6218.1
628.320495605,6238.125
628.598083496,6227.475
628.875671387,6251.775
629.153259277,6300.4
629.430725098,6381.6
629.708251953,6362.9
629.985656738,6364.8
630.263122559,6433.175
630.540588379,6431.775
630.817932129,6462.375
631.095275879,6518.625
631.372680664,6550.575
631.649963379,6600.075
631.927246094,6650.8
632.204589844,6681.325
632.481811523,6770.9
632.759033203,6878.225
633.036254883,6879.1
633.313415527,6977.675
633.590576172,7027.5
633.867736816,7126.925
634.144836426,7226.025
634.421875,7264.45
634.698913574,7317.2
634.976013184,7396.075
635.252990723,7473.875
635.529968262,7513.425
635.807006836,7615.225
636.08392334,7587.35
636.360839844,7479.175
636.637756348,7371.425
636.914611816,7314.825
637.191467285,7292.4
637.468261719,7407.55
637.745056152,7337.65
638.021789551,7382.325
638.298583984,7361.05
638.575317383,7433.675
638.851989746,7433.675
639.12878418,7460.675
639.405395508,7423.875
639.682006836,7458.125
639.958618164,7457.875
640.235229492,7468.1
640.511779785,7523.6
640.788330078,7487.525
641.064880371,7492.55
641.341308594,7465.325
641.617797852,7483.675
641.894226074,7471.7
642.170654297,7489.375
642.44708252,7490.75
642.723388672,7469.75
642.999755859,7484.575
643.276123047,7487.825
643.552429199,7485.875
643.828674316,7487.075
644.104919434,7465.925
644.381164551,7454.65
644.657348633,7469.525
644.933532715,7432.5
645.209716797,7440.025
645.485839844,7406.15
645.761901855,7439.8
646.038024902,7418.6
646.314086914,7443.575
646.590087891,7428.025
646.866149902,7448.15
647.142150879,7416.25
647.41809082,7382.725
647.694030762,7399.4
647.969970703,7361.45
648.245788574,7397.5
648.521728516,7398.125
648.797546387,7377.4
649.073303223,7411.05
649.349182129,7377.325
649.624938965,7362.175
649.900634766,7388.75
650.176391602,7360.65
650.452087402,7357.625
650.727783203,7382.8
651.003479004,7387.175
651.279052734,7357.975
651.554626465,7352.975
651.83026123,7362.95
652.105773926,7365.775
652.381286621,7321.975
652.656860352,7358.325
652.932312012,7375.15
653.207763672,7354.725
653.483215332,7394.65
653.758605957,7395.15
654.033935547,7388.75
654.309326172,7357.575
654.584716797,7408.225
654.859985352,7401.95
655.135253906,7446.25
655.410583496,7485.05
655.685791016,8607.325
655.9609375,13332.75
656.236206055,13023.575
656.511291504,8687.0
656.786437988,7639.55
657.061645508,7525.625
657.336669922,7472.85
657.611694336,7550.575
657.886779785,7567.825
658.161804199,7573.45
658.436828613,7551.65
658.711791992,7569.575
658.986755371,7557.375
659.261657715,7581.45
659.536621094,7600.075
659.811401367,7610.8
660.086303711,7628.175
660.36114502,7614.675
660.635864258,7584.525
660.910644531,7635.55
661.185424805,7649.925
661.460205078,7695.025
661.734863281,7673.725
662.009521484,7686.8
662.284179688,7686.375
662.558776855,7734.875
662.833435059,7761.2
663.108032227,7790.15
663.382568359,7786.7
663.657043457,7839.625
663.93157959,7860.4
664.206054688,7833.35
664.48046875,7898.025
664.755004883,7913.95
665.02935791,7911.725
665.303710938,7949.25
665.578125,7985.2
665.852416992,7961.975
666.126708984,7958.175
666.401062012,7992.7
666.675292969,8033.725
666.949462891,8014.675
667.223754883,8019.7
667.497924805,8095.7
667.772094727,8109.375
668.046264648,8066.575
668.3203125,8143.1
668.594421387,8161.85
668.868469238,8159.9
669.14251709,8176.325
669.416503906,8210.825
669.690551758,8217.875
669.964477539,8244.65
670.23840332,8240.75
670.512329102,8250.9
670.786254883,8211.05
671.060058594,8307.775
671.333984375,8296.425
671.607788086,8339.7
671.881530762,8314.3
672.155334473,8368.675
672.429077148,8380.8
672.702758789,8414.05
672.97644043,8372.5
673.25012207,8400.95
673.523742676,8403.975
673.797302246,8430.45
674.070922852,8475.475
674.344482422,8474.8
674.618041992,8490.925
674.891601562,8459.325
675.165100098,8496.675
675.438476562,8530.175
675.711975098,8529.925
675.985412598,8517.725
676.258789062,8531.225
676.532165527,8556.725
676.805480957,8556.55
677.078796387,8569.825
677.352111816,8619.425
677.625366211,8623.15
677.898620605,8626.475
678.171875,8670.7
678.445007324,8639.2
678.718200684,8708.5
678.991394043,8671.275
679.264404297,8684.0
679.537536621,8703.625
679.81060791,8731.15
680.083679199,8748.075
680.356689453,8747.625
680.629699707,8761.125
680.902648926,8710.2
681.175598145,8792.375
681.448547363,8821.05
681.721435547,8783.05
681.99420166,8809.9
682.267150879,8758.4
682.539916992,8878.7
682.812744141,8863.125
683.085510254,8869.1
683.358215332,8884.65
683.63092041,8855.95
683.903625488,8863.85
684.176330566,8853.575
684.448913574,8838.2
684.721557617,8851.175
684.99420166,8918.425
685.266662598,8877.2
685.539245605,8902.075
685.811767578,8948.375
686.084289551,8963.175
686.356689453,8996.8
686.629150391,9048.725
686.901550293,9097.525
687.17401123,9064.15
687.446350098,9113.625
687.718688965,9079.2
687.990966797,9119.625
688.263305664,9153.35
688.535522461,9133.05
688.807739258,9135.825
689.079956055,9169.8
689.352172852,9227.7
689.624328613,9217.875
689.896484375,9254.2
690.168518066,9261.425
690.440612793,9304.15
690.71270752,9267.575
690.984741211,9284.7
691.256713867,9331.1
691.528747559,9302.65
691.800720215,9365.4
692.072631836,9375.775
692.344543457,9444.525
692.616394043,9431.05
692.888244629,9423.95
693.160095215,9469.1
693.431945801,9512.7
693.703674316,9456.625
693.975463867,9479.275
694.247131348,9517.075
694.518859863,9526.15
694.790588379,9543.15
695.062255859,9586.3
695.33380127,9569.15
695.60546875,9567.65
695.87701416,9595.75
696.148498535,9617.225
696.42010498,9647.475
696.691589355,9679.875
696.96307373,9706.225
697.234558105,9718.75
697.50592041,9753.175
697.777282715,9733.5
698.048706055,9712.275
698.320068359,9804.525
698.591308594,9761.45
698.862670898,9767.225
699.133972168,9837.525
699.405151367,9803.65
699.676391602,9883.825
699.947570801,9828.975
700.21875,9841.825
700.489868164,9873.175
700.761047363,9920.325
701.032104492,9970.225
701.303100586,9879.2
701.57421875,9968.05
701.845214844,9960.65
702.116149902,9995.025
702.387207031,9962.025
702.65814209,10019.275
702.928955078,10042.8
703.199951172,9989.125
703.47076416,10001.95
703.741577148,10020.375
704.012451172,10079.075
704.28314209,10093.7
704.553955078,10068.25
704.824707031,10122.55
705.095397949,10125.9
705.366027832,10140.65
705.63671875,10118.7
705.907348633,10110.2
706.17791748,10120.625
706.448486328,10124.25
706.719055176,10162.55
706.989562988,10172.0
707.260131836,10197.325
707.530517578,10193.175
707.800964355,10202.725
708.071411133,10157.375
708.341796875,10211.175
708.612182617,10177.875
708.882446289,10150.225
709.152893066,10195.0
709.423156738,10217.175
709.693359375,10184.675
709.963623047,10250.5
710.233825684,10293.4
710.503967285,10226.525
710.774169922,10251.775
711.044311523,10236.2
711.31439209,10215.45
711.584533691,10246.5
711.854553223,10287.4
712.124572754,10294.575
712.39465332,10264.9
712.664611816,10320.35
712.934509277,10359.025
713.204467773,10313.075
713.474365234,10355.025
713.74420166,10335.975
714.014099121,10362.85
714.283874512,10355.7
714.553710938,10398.35
714.823486328,10368.1
715.093200684,10385.975
715.362915039,10382.55
715.632629395,10375.25
715.902282715,10350.9
716.171875,10365.575
716.441589355,10344.15
716.711181641,10337.625
716.980712891,10360.7
717.250244141,10337.075
717.519775391,10394.875
717.78918457,10386.3
718.058654785,10456.275
718.328125,10443.85
718.597473145,10428.2
718.866882324,10409.95
719.136230469,10425.425
719.405578613,10456.175
719.674865723,10468.6
719.944152832,10425.725
720.213439941,10399.325
720.48260498,10464.975
720.75177002,10486.85
721.020996094,10490.825
721.290100098,10490.6
721.559204102,10468.5
721.828308105,10511.775
722.097351074,10491.475
722.366455078,10478.25
722.635437012,10467.675
722.904418945,10445.675
723.173400879,10484.425
723.442321777,10513.95
723.711181641,10481.25
723.980102539,10536.2
724.248962402,10476.675
724.51776123,10468.0
724.786560059,10538.675
725.055358887,10541.875
725.324035645,10523.125
725.592834473,10534.15
725.86151123,10531.9
726.130187988,10533.7
726.398803711,10520.725
726.667419434,10540.075
726.935974121,10549.45
727.204528809,10477.125
727.473083496,10481.8
727.741638184,10430.05
728.010070801,10399.075
728.278564453,10413.4
728.546936035,10421.35
728.815368652,10301.9
729.08380127,10230.875
729.352111816,10218.675
729.620361328,10146.825
729.88873291,10204.275
730.156982422,10279.075
730.425231934,10268.65
730.693481445,10238.875
730.961669922,10300.3
731.229797363,10365.225
731.49798584,10389.025
731.766113281,10470.575
732.034118652,10547.575
732.302246094,10601.575
732.570251465,10654.225
732.838256836,10669.9
733.106262207,10775.65
733.374145508,10843.775
733.642089844,10877.0
733.909973145,10950.05
734.177856445,11052.65
734.445678711,11149.5
734.713562012,11262.125
734.981323242,11237.825
735.249084473,11282.425
735.516845703,11434.925
735.784545898,11543.6
736.052185059,11585.0
736.319885254,11708.975
736.587524414,11737.5
736.855102539,11807.775
737.122619629,11972.675
737.390197754,12002.9
737.657714844,12120.425
737.925170898,12160.85
738.192749023,12316.75
738.460144043,12378.2
738.727539062,12428.275
738.994995117,12572.075
739.262329102,12626.15
739.529663086,12816.35
739.79699707,12853.7
740.06427002,12958.225
740.331481934,13032.45
740.598754883,13115.125
740.865905762,13095.525
741.133056641,13255.275
741.40032959,13304.85
741.667358398,13346.225
741.934448242,13391.725
742.201599121,13405.5
742.468566895,13557.75
742.735534668,13623.125
743.002563477,13641.4
743.26953125,13637.45
743.536437988,13714.05
743.803405762,13843.725
744.0703125,13740.0
744.337097168,13919.425
744.604003906,13775.925
744.870727539,13933.075
745.137512207,13989.65
745.40423584,13972.625
745.670959473,13954.925
745.93762207,14042.325
746.204284668,14084.55
746.470947266,14093.475
746.737548828,14045.0
747.004089355,14040.625
747.270751953,14064.875
747.53717041,14103.7
747.803710938,14067.3
748.070251465,14043.1
748.336608887,14027.425
748.603027344,14001.3
748.869445801,13995.75
749.135803223,13987.1
749.402099609,13963.275
749.668457031,14003.275
749.934753418,13988.4
750.20098877,13929.925
750.467224121,14004.4
750.733459473,13969.225
750.999572754,13942.725
751.26574707,13808.7
751.531860352,13887.15
751.797912598,13846.925
752.064025879,13739.925
752.330078125,13778.3
752.596069336,13699.325
752.862060547,13667.675
753.127990723,13689.6
753.393920898,13681.85
753.659912109,13619.925
753.925720215,13660.225
754.19152832,13641.225
754.457397461,13545.65
754.723144531,13532.15
754.988952637,13441.175
755.254699707,13486.625
755.520385742,13531.475
755.786071777,13508.4
756.051696777,13471.05
756.317382812,13388.975
756.582946777,13358.975
756.848510742,13397.3
757.114074707,13339.5
757.379577637,13317.175
757.645080566,13387.85
757.910583496,13352.125
758.175964355,13236.7
758.441345215,13238.15
758.706848145,13044.85
758.972106934,13114.15
759.237426758,13136.125
759.502807617,13173.0
759.768005371,13117.625
760.03326416,13068.175
760.298522949,12986.575
760.563659668,13007.525
760.828857422,12965.4
761.093994141,12975.325
761.359130859,12896.375
761.624206543,12868.075
761.889282227,12814.425
762.15423584,12795.1
762.419250488,12812.675
762.684265137,12774.9
762.949157715,12767.075
763.214050293,12763.0
763.479003906,12728.7
763.743835449,12744.275
764.008666992,12657.825
764.2734375,12690.0
764.538208008,12746.875
764.802978516,12730.3
765.067687988,12701.075
765.332397461,12678.25
765.597045898,12608.925
765.861694336,12556.1
766.126342773,12509.625
766.390930176,12505.85
766.655395508,12460.575
766.920043945,12422.0
767.184509277,12438.4
767.448974609,12427.225
767.713439941,12400.65
767.977783203,12306.575
768.2421875,12376.6
768.506591797,12318.625
768.770874023,12432.225
769.03515625,12370.975
769.299499512,12338.7
769.563720703,12326.85
769.827941895,12259.325
770.092163086,12260.75
770.356323242,12261.7
770.620483398,12303.225
770.88458252,12312.275
771.148681641,12274.475
771.412719727,12235.475
771.676757812,12247.175
771.940734863,12230.525
772.204711914,12196.175
772.468688965,12160.775
772.73260498,12158.175
772.996459961,12179.35
773.260314941,10858.15
773.524169922,1372.55
773.787963867,159.375
774.051696777,122.625
774.315551758,121.275
774.579223633,122.25
774.842895508,119.175
775.106567383,121.025
775.370239258,115.075
775.633789062,121.65
775.897399902,127.05
776.160949707,117.6
776.424499512,120.85
776.687988281,121.025
776.951477051,124.675
777.214904785,119.15
777.47833252,120.45
