191.299911499,100.35
191.603515625,102.85
191.907119751,97.275
192.210693359,107.625
192.514251709,99.075
192.817810059,104.6
193.121368408,101.5
193.42489624,105.925
193.728408813,99.625
194.031936646,98.55
194.33543396,93.075
194.638916016,110.275
194.94241333,96.6
195.245880127,96.225
195.549331665,95.475
195.852767944,99.825
196.156204224,206.1
196.459625244,198.875
196.763015747,203.925
197.066436768,211.925
197.369812012,203.525
197.673187256,207.2
197.9765625,198.65
198.279922485,206.425
198.583251953,196.6
198.886581421,204.575
199.18989563,209.625
199.493209839,204.775
199.79649353,194.975
200.09979248,209.4
200.403076172,205.475
200.706314087,204.6
201.009567261,204.6
201.312820435,206.0
201.616027832,199.05
201.919235229,189.65
202.222457886,199.1
202.525634766,198.975
202.828826904,192.925
203.132003784,192.25
203.435150146,192.75
203.738296509,195.425
204.041412354,190.95
204.344558716,196.725
204.647659302,198.175
204.950759888,199.4
205.253845215,199.9
205.556930542,195.325
205.859985352,196.15
206.163024902,194.825
206.466079712,199.8
206.769104004,203.725
207.072113037,197.25
207.375137329,196.525
207.678131104,195.15
207.981109619,201.875
208.284088135,198.1
208.587036133,204.45
208.889984131,201.0
209.19291687,205.325
209.495849609,202.775
209.798751831,205.75
210.101654053,203.225
210.404556274,206.0
210.707427979,205.75
211.010269165,211.925
211.31312561,206.3
211.615982056,206.65
211.918807983,209.675
212.221618652,208.6
212.524429321,204.6
212.827224731,218.325
213.130004883,212.325
213.432769775,213.675
213.735534668,212.725
214.038269043,214.375
214.341003418,218.175
214.643737793,219.325
214.946456909,220.525
215.249145508,221.55
215.551834106,224.425
215.854507446,219.975
216.157165527,224.025
216.45980835,227.15
216.762451172,226.4
217.065078735,231.375
217.36769104,234.75
217.670303345,234.15
217.972885132,238.2
218.275466919,240.1
218.578048706,233.05
218.880599976,244.5
219.183120728,243.7
219.485656738,247.45
219.788192749,256.325
220.090682983,271.125
220.393188477,288.65
220.695663452,318.65
220.998138428,348.6
221.300582886,385.8
221.603042603,422.25
221.905487061,474.575
222.207901001,531.35
222.510299683,601.3
222.812728882,680.725
223.115097046,767.225
223.41746521,858.525
223.719848633,956.1
224.022171021,1046.2
224.324508667,1145.3
224.626846313,1283.175
224.929168701,1389.1
225.231460571,1510.35
225.533737183,1621.45
225.836013794,1732.65
226.138290405,1847.15
226.440536499,1944.225
226.742767334,2053.275
227.044998169,2139.65
227.347213745,2246.875
227.649429321,2328.825
227.951629639,2406.45
228.253799438,2478.85
228.555953979,2539.175
228.858123779,2604.6
229.160263062,2664.35
229.462371826,2709.9
229.764511108,2754.875
230.066619873,2780.525
230.36869812,2823.025
230.670776367,2867.525
230.972854614,2915.075
231.274902344,2952.925
231.576950073,3012.95
231.878967285,3047.3
232.180999756,3097.875
232.48298645,3138.45
232.784988403,3198.8
233.086975098,3240.325
233.388946533,3288.325
233.69090271,3332.2
233.992858887,3391.25
234.294769287,3412.2
234.596694946,3434.9
234.898605347,3498.675
235.200500488,3528.65
235.502380371,3530.45
235.804244995,3563.8
236.106109619,3574.275
236.407958984,3591.375
236.709777832,3626.975
237.011581421,3648.425
237.313400269,3634.3
237.615203857,3680.0
237.916976929,3698.5
238.21875,3685.125
238.520507812,3696.625
238.822250366,3707.6
239.12399292,3712.05
239.425704956,3752.15
239.727401733,3736.8
240.02911377,3755.425
240.330780029,3730.3
240.632446289,3762.475
240.93409729,3769.825
241.23576355,3774.65
241.537384033,3821.775
241.839004517,3817.3
242.140594482,3836.5
242.442199707,3879.225
242.743774414,3868.875
243.045333862,3910.725
243.346923828,3921.775
243.648452759,3967.55
243.949966431,3992.075
244.251495361,4024.875
244.552993774,4048.525
244.854492188,4058.625
245.155975342,4073.475
245.457443237,4122.55
245.758880615,4114.675
246.060333252,4180.425
246.36177063,4171.05
246.66317749,4180.325
246.964569092,4215.45
247.265945435,4228.325
247.567337036,4243.65
247.86869812,4304.95
248.170059204,4321.1
248.471389771,4374.675
248.772705078,4429.85
249.074035645,4469.1
249.375335693,4516.625
249.676620483,4580.225
249.977890015,4633.35
250.279159546,4726.375
250.58039856,4787.0
250.881637573,4842.35
251.182876587,4920.625
251.484069824,4990.5
251.785263062,5068.5
252.086456299,5189.875
252.387619019,5262.0
252.688781738,5310.65
252.989929199,5400.3
253.291061401,5474.9
253.592178345,5604.825
253.893280029,5660.775
254.194366455,5707.725
254.49546814,5748.4
254.796524048,5794.525
255.097579956,5850.775
255.398620605,5885.7
255.699645996,5970.0
256.000640869,5984.75
256.30166626,6014.525
256.602661133,6080.8
256.903656006,6073.6
257.204589844,6091.325
257.505523682,6076.6
257.80645752,6107.25
258.107391357,6106.85
258.408294678,6103.1
258.709228516,6057.75
259.010070801,6055.1
259.310943604,6067.8
259.611846924,6013.225
259.912658691,5988.95
260.213500977,5948.325
260.514343262,5924.375
260.815124512,5863.025
261.115936279,5841.525
261.416717529,5851.05
261.717468262,5831.35
262.018218994,5816.9
262.318969727,5814.125
262.619689941,5852.975
262.920410156,5924.925
263.221130371,5956.75
263.521789551,5993.4
263.822479248,6076.35
264.123138428,6115.15
264.42376709,6153.5
264.72442627,6171.425
265.025054932,6216.25
265.325622559,6229.5
265.626251221,6234.95
265.926818848,6252.55
266.227386475,6215.925
266.527954102,6200.1
266.828460693,6217.075
267.12902832,6135.6
267.429534912,6122.975
267.730010986,6091.55
268.030517578,6069.125
268.330993652,6044.525
268.631439209,6027.525
268.931915283,6033.775
269.232299805,6023.175
269.532745361,6024.625
269.8331604,5981.225
270.133544922,5959.075
270.433929443,6001.775
270.734313965,5969.85
271.034637451,6011.45
271.334991455,6027.575
271.635314941,6092.75
271.935638428,6115.05
272.235931396,6151.925
272.536254883,6242.1
272.836486816,6328.525
273.136749268,6401.05
273.437011719,6517.375
273.737213135,6639.875
274.037445068,6735.875
274.337677002,6870.525
274.6378479,6985.575
274.938049316,7153.85
275.238220215,7274.575
275.538360596,7434.65
275.838500977,7480.45
276.138641357,7679.1
276.438751221,7741.0
276.738830566,7878.85
277.03894043,7982.15
277.338989258,8140.575
277.639038086,8232.825
277.939056396,8298.2
278.239105225,8393.8
278.539093018,8502.0
278.839141846,8580.7
279.139129639,8646.45
279.439086914,8767.325
279.739044189,8816.475
280.039001465,8980.325
280.338928223,9005.55
280.63885498,9057.675
280.938781738,9128.95
281.238647461,9180.4
281.538513184,9222.825
281.838409424,9247.5
282.138244629,9312.575
282.438079834,9312.15
282.737945557,9387.475
283.037719727,9381.0
283.337524414,9436.5
283.637298584,9434.25
283.937072754,9474.625
284.236816406,9510.025
284.536560059,9463.9
284.836303711,9495.025
285.136016846,9570.275
285.43572998,9571.7
285.735412598,9560.2
286.035064697,9568.325
286.334747314,9626.125
286.634368896,9602.675
286.933990479,9540.625
287.233642578,9475.05
287.533203125,9479.225
287.832824707,9413.7
288.132385254,9282.25
288.431945801,9143.85
288.731506348,8979.125
289.031036377,8800.975
289.330566406,8641.825
289.630065918,8595.375
289.92956543,8572.05
290.229034424,8683.075
290.528503418,8868.475
290.827941895,9071.125
291.127380371,9236.4
291.42678833,9394.3
291.726226807,9551.95
292.025604248,9588.0
292.324981689,9608.975
292.624359131,9597.7
292.923736572,9633.425
293.223052979,9648.125
293.522369385,9639.4
293.821685791,9551.975
294.12097168,9572.55
294.420257568,9494.175
294.719543457,9502.25
295.018768311,9483.325
295.318023682,9364.725
295.617248535,9332.325
295.916442871,9244.525
296.215667725,9190.85
296.514862061,8989.375
296.813995361,8722.85
297.11315918,8504.0
297.412322998,8321.425
297.711425781,8277.475
298.010559082,8504.925
298.309631348,8744.825
298.608734131,8945.6
298.907806396,9186.825
299.206848145,9338.75
299.505889893,9442.575
299.804901123,9525.25
300.103912354,9651.45
300.402954102,9710.8
300.701904297,9779.675
301.00088501,9846.625
301.299835205,9935.425
301.5987854,9950.375
301.897735596,10053.2
302.196624756,10109.625
302.495513916,10200.65
302.794403076,10230.175
303.093292236,10284.2
303.392120361,10359.325
303.690979004,10437.65
303.989837646,10499.6
304.288604736,10550.575
304.587402344,10547.875
304.886199951,10612.0
305.184967041,10627.175
305.483734131,10716.25
305.782501221,10717.375
306.081176758,10738.475
306.37991333,10769.625
306.678619385,10781.75
306.977294922,10782.725
307.275970459,10812.425
307.574645996,10819.425
307.873260498,10801.975
308.171875,10776.3
308.470489502,10782.375
308.769104004,10700.1
309.067687988,10681.275
309.366241455,10721.275
309.664794922,10655.475
309.963348389,10655.125
310.261871338,10658.325
310.560394287,10657.65
310.858856201,10694.4
311.157348633,10724.125
311.455810547,10708.85
311.754272461,10717.05
312.052703857,10839.675
312.351135254,10854.675
312.649536133,10839.95
312.947937012,10820.175
313.246307373,10864.825
313.544647217,10823.7
313.843017578,10773.0
314.141387939,10754.825
314.439697266,10796.4
314.738006592,10680.175
315.036315918,10599.4
315.334564209,10516.575
315.6328125,10425.975
315.931091309,10399.85
316.229309082,10213.075
316.527526855,10073.35
316.825744629,10031.9
317.123901367,9897.375
317.422088623,9831.325
317.720245361,9840.1
318.0184021,9878.0
318.316497803,9900.35
318.614654541,9923.4
318.912750244,10048.875
319.21081543,10055.05
319.50894165,10054.45
319.806945801,10034.8
320.104980469,10044.55
320.403045654,10052.325
320.701049805,10009.2
320.999023438,9984.4
321.297027588,9925.375
321.595001221,9911.225
321.892913818,9865.975
322.190887451,9768.6
322.488830566,9706.9
322.786712646,9656.7
323.084625244,9546.675
323.382507324,9547.5
323.680358887,9437.35
323.978210449,9350.225
324.276062012,9275.85
324.573852539,9227.425
324.871643066,9170.375
325.169464111,9094.85
325.467224121,9012.925
325.764984131,8893.65
326.062744141,8822.0
326.360473633,8739.025
326.658203125,8683.8
326.955871582,8565.625
327.253570557,8519.5
327.551239014,8441.2
327.848907471,8368.55
328.146514893,8270.775
328.444152832,8198.675
328.741790771,8142.575
329.039367676,8067.825
329.336914062,7983.525
329.634521484,7920.325
329.932067871,7886.85
330.229553223,7757.95
330.527160645,7716.7
330.824615479,7653.55
331.12210083,7548.425
331.419586182,7404.9
331.717041016,7357.0
332.014465332,7259.4
332.311920166,7212.775
332.609313965,7159.9
332.906707764,7151.4
333.204101562,7148.8
333.501495361,7120.875
333.798828125,7182.275
334.096160889,7220.35
334.39352417,7290.825
334.690795898,7336.375
334.988098145,7373.475
335.285400391,7442.125
335.582641602,7453.45
335.879882812,7506.5
336.177124023,7539.05
336.474334717,7601.575
336.77154541,7566.425
337.068725586,7640.375
337.365905762,7619.8
337.66305542,7621.675
337.960205078,7670.8
338.257324219,7648.4
338.554443359,7691.925
338.8515625,7703.125
339.148590088,7696.0
339.445648193,7716.1
339.742736816,7664.625
340.039764404,7676.675
340.336761475,7621.125
340.63381958,7550.25
340.930755615,7506.95
341.227722168,7437.55
341.524688721,7315.075
341.821624756,7280.2
342.118560791,7295.325
342.415496826,7400.425
342.712402344,7549.875
343.009246826,7719.625
343.306121826,7842.175
343.602966309,7905.175
343.899810791,7998.975
344.196624756,8114.75
344.493438721,8105.225
344.79019165,8183.4
345.086975098,8255.75
345.383758545,8302.825
345.680480957,8279.05
345.977203369,8268.525
346.273956299,8359.65
346.570617676,8339.175
346.86730957,8352.125
347.163970947,8308.775
347.460601807,8344.875
347.757232666,8356.725
348.053894043,8371.225
348.350463867,8279.5
348.647064209,8271.025
348.943634033,8246.9
349.24017334,8257.275
349.536712646,8185.4
349.833251953,8213.5
350.129760742,8147.15
350.426208496,8163.45
350.722747803,8117.225
351.019195557,8123.0
351.315612793,8052.025
351.612060547,7994.4
351.908508301,7941.25
352.204864502,7864.05
352.501281738,7830.625
352.797637939,7737.925
353.093963623,7632.525
353.390319824,7598.0
353.686645508,7472.625
353.982940674,7412.25
354.27923584,7348.95
354.575531006,7274.05
354.871765137,7271.325
355.167999268,7237.1
355.464233398,7261.275
355.760437012,7258.975
356.056640625,7243.425
356.352813721,7253.6
356.648956299,7258.225
356.945129395,7287.8
357.241271973,7253.575
357.537384033,7288.15
357.833496094,7223.075
358.129577637,7214.525
358.425628662,7159.75
358.721679688,7125.325
359.017730713,7126.975
359.313720703,7032.975
359.609710693,7014.675
359.905761719,6958.225
360.201721191,6908.15
360.497650146,6832.125
360.793609619,6805.9
361.089538574,6714.725
361.385437012,6606.875
361.681365967,6571.0
361.977233887,6517.075
362.273071289,6440.65
362.568908691,6304.825
362.864746094,6162.775
363.160552979,6021.5
363.456359863,5830.725
363.752166748,5663.975
364.047912598,5560.625
364.343658447,5514.025
364.639434814,5548.0
364.935119629,5604.95
365.230834961,5697.1
365.526550293,5729.05
365.822174072,5723.875
366.117858887,5724.5
366.413482666,5769.55
366.709075928,5789.175
367.004730225,5677.5
367.300292969,5679.825
367.595855713,5755.075
367.891448975,5619.05
368.186981201,5480.55
368.482513428,5428.15
368.778015137,5425.425
369.073547363,5363.475
369.36895752,5375.65
369.664428711,5274.85
369.95993042,5134.65
370.255310059,5088.55
370.550720215,5058.125
370.846160889,5014.6
371.14151001,4945.675
371.436859131,4913.075
371.73223877,4920.975
372.027557373,4860.75
372.322875977,4809.725
372.618164062,4755.2
372.913482666,4697.65
373.208709717,4669.3
373.503967285,4618.4
373.799194336,4553.875
374.094421387,4563.7
374.389648438,4530.4
374.684844971,4509.025
374.979980469,4566.725
375.275146484,4578.475
375.570281982,4607.925
375.865386963,4601.4
376.160522461,4538.175
376.455596924,4552.075
376.750640869,4657.65
377.045715332,4662.925
377.340759277,4693.65
377.635772705,4775.525
377.93081665,4808.25
378.225769043,4881.225
378.520751953,4943.075
378.815734863,4912.0
379.110656738,5094.325
379.405548096,5267.05
379.700500488,5108.425
379.995391846,4833.55
380.290252686,4899.975
380.585083008,5029.1
380.879974365,5077.2
381.17477417,4968.65
381.469543457,4895.375
381.764404297,4899.975
382.059143066,4929.45
382.353912354,5010.275
382.648651123,5107.35
382.943389893,5082.5
383.238067627,4894.55
383.532775879,4877.9
383.827484131,4827.975
384.12210083,4837.275
384.416778564,4747.925
384.711425781,4646.025
385.006011963,4676.2
385.300628662,4675.95
385.595184326,4746.35
385.88973999,4853.375
386.184295654,4962.575
386.478820801,5057.675
386.77331543,5178.375
387.067840576,5283.475
387.362335205,5382.15
387.656768799,5467.475
387.951202393,5505.425
388.245635986,5582.825
388.540039062,5656.35
388.834472656,5723.75
389.128875732,5633.025
389.423187256,5374.5
389.717559814,5312.125
390.011871338,5429.3
390.306182861,5470.525
390.600463867,5468.825
390.894775391,5561.025
391.189025879,5593.95
391.48324585,5578.525
391.777526855,5631.175
392.071685791,5879.725
392.365875244,5983.275
392.660064697,6055.025
392.95425415,6426.375
393.248382568,6415.85
393.542510986,5863.6
393.836608887,5657.825
394.130706787,5668.35
394.424804688,5589.85
394.71887207,5766.225
395.012878418,5707.525
395.306915283,5603.025
395.600921631,5525.2
395.894927979,5502.9
396.188903809,5545.175
396.482879639,5568.925
396.776794434,5774.825
397.070739746,5746.45
397.364654541,5764.675
397.658538818,6204.875
397.952423096,6219.9
398.246307373,6179.1
398.540100098,6778.675
398.833953857,6643.5
399.127746582,6068.3
399.421508789,6105.2
399.715301514,6035.675
400.009063721,5935.575
400.30279541,5758.9
400.596496582,5668.15
400.890258789,5835.65
401.183929443,5961.15
401.47756958,5835.125
401.771240234,5541.775
402.064880371,5566.325
402.35848999,5614.875
402.652130127,5507.95
402.945678711,5595.425
403.239257812,5543.675
403.532775879,5469.075
403.82635498,5521.55
404.119842529,5426.15
404.413360596,5423.9
404.706848145,5474.875
405.000274658,5399.75
405.293762207,5476.45
405.587188721,5546.2
405.880584717,5377.325
406.17401123,5147.425
406.467407227,4922.975
406.760742188,4949.4
407.054107666,4983.725
407.347442627,4890.225
407.640716553,4883.35
407.934051514,4952.025
408.227325439,5007.225
408.520568848,5276.175
408.813842773,5363.55
409.107086182,5125.225
409.400238037,5100.5
409.693450928,5005.6
409.986633301,5132.125
410.279754639,5044.525
410.572875977,4713.075
410.86605835,4644.025
411.159118652,4666.975
411.452209473,4688.45
411.745330811,4509.35
412.038360596,4408.825
412.331390381,4451.175
412.624420166,4510.625
412.917388916,4388.175
413.210388184,4175.925
413.503387451,4170.35
413.796295166,4030.05
414.089233398,3853.6
414.382141113,3766.0
414.675048828,3740.45
414.967926025,3776.625
415.260803223,3721.725
415.55368042,3741.0
415.846466064,3701.725
416.139282227,3812.15
416.432098389,3918.15
416.724853516,3925.525
417.017608643,3865.775
417.31036377,3882.95
417.603088379,4012.8
417.895782471,3994.825
418.188476562,3960.125
418.481140137,4021.3
418.773803711,4102.025
419.066436768,4064.075
419.359039307,4154.7
419.651641846,4152.5
419.944244385,4160.075
420.236816406,4110.425
420.529327393,4348.975
420.821899414,4436.7
421.114379883,4333.7
421.406860352,4642.125
421.699371338,4903.875
421.991821289,4852.35
422.284240723,4623.5
422.576721191,4462.025
422.869110107,4330.15
423.161468506,4266.35
423.453857422,4311.175
423.74621582,4159.2
424.038543701,4013.825
424.330871582,3980.8
424.623168945,3897.325
424.915435791,4054.8
425.207702637,4018.15
425.499969482,3955.8
425.792205811,3895.45
426.084411621,3587.725
426.376617432,3693.35
426.668762207,3761.975
426.9609375,3643.725
427.253082275,3777.025
427.545196533,4236.925
427.837310791,3915.8
428.129425049,3575.425
428.421447754,3834.3
428.713531494,3838.125
429.005554199,3830.45
429.297576904,3845.7
429.589599609,4348.4
429.881561279,4688.0
430.173522949,4459.4
430.465484619,4399.775
430.757415771,4453.825
431.049316406,4218.725
431.341186523,3965.825
431.633117676,3837.2
431.924957275,3481.975
432.21673584,3348.0
432.508636475,3520.575
432.800415039,3548.9
433.092163086,3436.975
433.383972168,3398.95
433.675689697,4211.875
433.967437744,4774.3
434.259155273,3679.025
434.550872803,3333.35
434.842498779,3386.975
435.134185791,3530.025
435.425842285,3568.125
435.717437744,3465.1
436.009063721,3234.225
436.30065918,3412.85
436.592224121,3792.45
436.883758545,3585.725
437.175323486,3278.725
437.466827393,3237.825
437.758331299,3270.3
438.049804688,3296.475
438.341247559,3367.6
438.63269043,3431.175
438.924163818,3452.225
439.215515137,3362.325
439.50692749,3272.375
439.798309326,3284.975
440.089660645,3283.575
440.380981445,3185.325
440.672332764,3182.525
440.963623047,3481.375
441.254882812,4025.675
441.546173096,4224.4
441.837402344,3938.125
442.128631592,3710.225
442.41986084,3686.7
442.711029053,3562.675
443.002197266,3627.15
443.293365479,3843.5
443.584503174,3995.825
443.875610352,3973.725
444.166717529,3655.775
444.457794189,3709.25
444.748840332,3715.775
445.039916992,3648.425
445.330932617,3762.1
445.621948242,3579.475
445.912963867,3369.2
446.203918457,3617.9
446.494812012,3888.35
446.785827637,3656.95
447.076721191,3443.45
447.367584229,3423.15
447.658447266,3394.65
447.949371338,3438.925
448.24017334,3313.35
448.530975342,3231.1
448.821838379,3422.0
449.112579346,3503.55
449.40335083,3431.075
449.694152832,3470.85
449.984863281,3465.1
450.27557373,3388.075
450.56628418,3451.675
450.856933594,3484.425
451.147583008,3300.35
451.438262939,3177.5
451.728881836,3398.45
452.019470215,3528.8
452.310089111,3270.475
452.600646973,3324.15
452.891174316,3377.825
453.181732178,3176.45
453.472229004,3020.65
453.762695312,3158.15
454.053222656,3202.5
454.343658447,3039.575
454.634063721,2964.35
454.924530029,3162.95
455.214935303,3318.875
455.505279541,3403.8
455.795715332,3236.275
456.086029053,3013.55
456.376312256,2985.1
456.666687012,3043.75
456.956939697,3162.325
457.247192383,3148.825
457.537445068,3239.375
457.827728271,3462.625
458.117919922,3367.625
458.408081055,3295.15
458.698303223,3500.625
458.988433838,3415.3
459.278564453,3221.925
459.568725586,3530.075
459.858825684,3663.1
460.148864746,3305.725
460.438995361,3253.8
460.729034424,3331.825
461.019042969,3334.0
461.309082031,3555.6
461.599060059,3428.65
461.889007568,2894.5
462.179016113,2705.375
462.468933105,2965.675
462.75881958,3092.8
463.048736572,2793.975
463.338592529,3105.375
463.628448486,3516.275
463.918365479,3188.725
464.2081604,3370.55
464.497924805,3309.75
464.787780762,3483.075
465.077514648,3817.0
465.367218018,3376.275
465.657012939,3625.725
465.946685791,4088.45
466.236358643,3617.45
466.526092529,3007.55
466.815734863,3009.875
467.105316162,2918.625
467.394927979,2949.525
467.684570312,2795.0
467.974121094,2904.675
468.263671875,3030.95
468.553222656,2782.525
468.842773438,2650.275
469.132232666,2527.45
469.42175293,2558.65
469.711212158,2542.5
470.000640869,2388.175
470.290100098,2461.1
470.579498291,2502.675
470.868835449,2504.325
471.158294678,2448.7
471.447601318,2433.8
471.736907959,2517.375
472.026275635,2582.65
472.315551758,2584.25
472.604797363,2578.325
472.894104004,2724.325
473.183319092,2826.925
473.47253418,2827.275
473.761779785,2812.925
474.05090332,2744.375
474.340087891,2687.45
474.629241943,2605.225
474.918365479,2807.075
475.207427979,3131.25
475.496551514,3147.45
475.785614014,2847.925
476.074645996,2618.075
476.363708496,2717.825
476.652679443,2883.7
476.941650391,2677.325
477.230682373,2496.35
477.519622803,2492.95
477.808502197,2671.875
478.097412109,2975.55
478.386352539,2925.75
478.675201416,2634.25
478.964050293,2505.25
479.25289917,2724.525
479.541717529,2797.875
479.830474854,2598.35
480.11932373,3003.65
480.408050537,3205.05
480.696777344,2766.225
480.985534668,2622.15
481.274200439,2727.9
481.562866211,3022.15
481.851593018,3042.525
482.140197754,2963.8
482.428833008,2773.875
482.717468262,2548.025
483.006011963,2581.225
483.294586182,2743.85
483.5831604,2763.375
483.871673584,2610.8
484.16015625,2771.75
484.448699951,3061.75
484.7371521,3100.4
485.02557373,3123.075
485.314025879,2799.45
485.602416992,4340.325
485.890777588,15227.075
486.179199219,13701.65
486.467559814,3709.975
486.755859375,2664.575
487.044219971,3132.475
487.332519531,3330.8
487.620758057,2873.3
487.908966064,2584.525
488.197265625,2330.875
488.485473633,2225.05
488.773651123,2364.975
489.061859131,2359.9
489.350006104,2303.175
489.638122559,2239.725
489.926300049,2253.75
490.214355469,2198.625
490.502441406,2146.75
490.790527344,2065.075
491.078552246,2285.5
491.366546631,2283.925
491.654602051,2008.55
491.942565918,2111.875
492.230499268,2158.75
492.518493652,2117.85
492.806396484,2159.7
493.094268799,2048.05
493.382202148,2099.925
493.670074463,2235.075
493.957885742,2059.075
494.245727539,2050.55
494.533508301,2255.775
494.821289062,2121.6
495.109100342,1934.85
495.396850586,1886.825
495.684539795,1824.275
495.972290039,2084.6
496.25994873,2491.15
496.547607422,2487.4
496.835296631,2280.575
497.122894287,1907.975
497.410522461,1809.775
497.6980896,1811.475
497.985687256,1771.525
498.273223877,1903.375
498.560760498,1971.375
498.848266602,2004.0
499.135772705,1963.025
499.423217773,2024.5
499.710693359,2158.725
499.998138428,2068.525
500.285522461,1870.525
500.572937012,1786.425
500.860290527,1853.8
501.147644043,1981.075
501.434997559,2251.6
501.722290039,2096.3
502.00958252,1819.025
502.296875,2125.85
502.584106445,2114.925
502.871337891,1902.225
503.158599854,1995.575
503.445770264,2086.875
503.732910156,2043.925
504.020141602,1827.35
504.307220459,1806.25
504.594329834,1848.25
504.881469727,1779.95
505.168518066,1854.175
505.455535889,1938.65
505.742614746,1803.175
506.029632568,1715.375
506.316589355,1937.6
506.603637695,2051.275
506.890563965,1823.35
507.177459717,1622.125
507.464385986,1517.7
507.751312256,1786.625
508.038146973,1886.75
508.325012207,1707.5
508.611877441,1775.1
508.898681641,1797.275
509.185424805,1606.25
509.472259521,1560.175
509.759002686,1668.5
510.045715332,1696.55
510.332458496,1640.575
510.619140625,1723.675
510.905761719,1605.675
511.192504883,1591.5
511.479095459,1650.675
511.765686035,1585.45
512.052307129,1494.475
512.338928223,1425.65
512.625427246,1497.45
512.91204834,1568.35
513.198486328,1549.875
513.484985352,1502.475
513.77142334,1409.725
514.057922363,1478.825
514.344299316,1472.525
514.63079834,1416.2
514.917175293,1407.725
515.203552246,1296.675
515.489868164,1261.45
515.776245117,1400.175
516.0625,1462.575
516.348815918,1356.25
516.635070801,1402.7
516.921325684,1456.075
517.207580566,1383.225
517.493774414,1270.225
517.779968262,1275.75
518.066101074,1320.675
518.352294922,1273.675
518.638366699,1276.275
518.924499512,1365.85
519.210632324,1464.525
519.496643066,1415.275
519.782714844,1297.375
520.068786621,1258.175
520.354736328,1210.95
520.640686035,1161.7
520.926757812,1224.675
521.212646484,1312.45
521.498535156,1312.8
521.784484863,1255.5
522.0703125,1168.4
522.356262207,1196.0
522.642089844,1287.75
522.927856445,1278.925
523.213684082,1265.3
523.499511719,1259.375
523.78527832,1301.025
524.070983887,1368.175
524.356750488,1342.9
524.64239502,1298.6
524.928039551,1281.575
525.213806152,1293.225
525.499389648,1286.3
525.784973145,1329.05
526.070617676,1383.425
526.356140137,1335.8
526.641723633,1341.125
526.927307129,1418.525
527.212768555,1427.15
527.498291016,1397.15
527.783752441,1401.05
528.069213867,1372.575
528.354675293,1401.35
528.640014648,1588.45
528.925476074,1674.15
529.21081543,1594.725
529.496154785,1566.2
529.781555176,1524.475
530.066833496,1541.7
530.352050781,1555.325
530.637390137,1547.625
530.922607422,1550.325
531.207824707,1534.9
531.493041992,1517.825
531.778198242,1612.3
532.063354492,1582.325
532.348571777,1514.15
532.633666992,1548.8
532.918762207,1629.875
533.203857422,1733.1
533.488891602,1769.45
533.773925781,1703.475
534.059020996,1671.825
534.343933105,1704.375
534.628967285,1674.2
534.91394043,1691.15
535.198852539,1701.825
535.483703613,1677.325
535.768676758,1612.15
536.053527832,1597.675
536.338317871,1565.725
536.62322998,1484.025
536.90802002,1462.45
537.192810059,1487.875
537.477539062,1573.075
537.762329102,1632.6
538.047058105,1676.775
538.331726074,1717.175
538.616455078,1709.675
538.901123047,1675.4
539.18572998,1734.4
539.470397949,1728.35
539.755004883,1721.0
540.039550781,1664.6
540.32409668,1622.075
540.608703613,1675.975
540.893188477,1782.675
541.17767334,1802.625
541.462158203,1806.5
541.746643066,1743.975
542.031066895,1789.45
542.315429688,1840.5
542.59979248,1835.2
542.884216309,1815.075
543.168579102,1808.775
543.452941895,1823.0
543.737243652,1891.0
544.021484375,1928.65
544.305725098,1930.95
544.590026855,1905.4
544.874267578,1912.975
545.158447266,2003.275
545.442626953,1911.025
545.726806641,1775.225
546.010925293,1799.95
546.29510498,1848.2
546.579162598,1848.825
546.863220215,1879.175
547.147277832,1963.175
547.431335449,2060.0
547.715332031,2114.625
547.999328613,2252.55
548.283325195,2273.675
548.567260742,2086.1
548.851135254,2064.575
549.135070801,2028.025
549.419006348,1921.575
549.702819824,2036.65
549.986755371,2115.725
550.270507812,2089.475
550.554321289,2122.05
550.83807373,2141.05
551.121826172,2092.325
551.405517578,2103.325
551.689331055,2251.975
551.973022461,2532.45
552.256652832,2588.875
552.540344238,2476.275
552.823974609,2436.25
553.107543945,2441.375
553.391174316,2503.275
553.674743652,2565.375
553.958251953,2581.15
554.241821289,2573.425
554.525268555,2516.125
554.808776855,2503.575
555.092285156,2734.375
555.375671387,2828.3
555.659057617,2829.775
555.942504883,2855.625
556.225891113,2898.8
556.509216309,2849.55
556.792541504,2743.25
557.075866699,2829.675
557.359130859,2869.9
557.64239502,2879.375
557.92565918,2963.675
558.208862305,2946.725
558.49206543,2861.2
558.77532959,2873.9
559.058410645,2938.85
559.341552734,2905.0
559.624694824,2994.55
559.907775879,3073.425
560.190856934,3221.675
560.473937988,3186.4
560.756896973,3254.2
561.039978027,3293.475
561.322937012,3245.7
561.605895996,3238.025
561.88885498,3196.9
562.171813965,3191.95
562.454650879,3177.35
562.737548828,3223.625
563.020446777,3302.175
563.303283691,3314.475
563.58605957,3374.6
563.868896484,3392.575
564.151672363,3450.05
564.434387207,3479.325
564.717163086,3450.575
564.99987793,3493.425
565.282531738,3574.325
565.565185547,3487.75
565.847839355,3494.8
566.130432129,3661.925
566.413085938,3620.625
566.695678711,3638.9
566.978149414,3786.525
567.260681152,3948.5
567.543273926,4028.7
567.825744629,3917.175
568.108154297,3953.325
568.390686035,4103.6
568.673095703,4227.475
568.955505371,4314.425
569.237854004,4343.725
569.520202637,4668.825
569.802490234,4908.975
570.084838867,4877.3
570.367126465,4680.325
570.649414062,4704.325
570.93170166,5137.45
571.213928223,5216.075
571.496154785,4917.45
571.778381348,5180.675
572.06048584,5471.325
572.342590332,4931.45
572.624755859,4524.475
572.906860352,4600.05
573.188903809,5405.9
573.470947266,5692.325
573.752990723,5409.05
574.03503418,5545.15
574.317016602,6001.275
574.598937988,5738.3
574.88092041,5605.7
575.162841797,5818.05
575.444763184,5361.175
575.726623535,5076.05
576.008483887,5121.75
576.290344238,5578.675
576.572143555,5842.05
576.853881836,5889.35
577.135681152,5768.75
577.417419434,5844.7
577.699157715,6874.525
577.980895996,7085.575
578.262573242,6313.55
578.544128418,5753.0
578.825866699,5646.4
579.107421875,5316.825
579.388977051,5507.2
579.670593262,5978.35
579.952148438,5806.4
580.233642578,5908.45
580.515197754,6045.45
580.796691895,5672.95
581.078125,5885.8
581.359619141,7640.225
581.640991211,7768.425
581.922363281,6696.75
582.203796387,6774.85
582.485107422,6325.35
582.766418457,5872.35
583.047790527,5672.2
583.329040527,5531.875
583.610290527,5380.7
583.891540527,5508.425
584.172790527,5859.875
584.453918457,5899.05
584.735107422,5954.925
585.016235352,6501.125
585.297363281,6444.425
585.578552246,6228.85
585.859619141,6159.4
586.140625,5878.075
586.421630859,5732.05
586.702697754,5768.8
586.983642578,6053.85
587.264648438,6237.2
587.545654297,6169.275
587.826477051,6106.325
588.107421875,5887.3
588.388305664,5899.825
588.669189453,6027.275
588.950012207,5849.45
589.230834961,5760.1
589.511657715,5864.025
589.792358398,5956.2
590.073120117,5942.025
590.353881836,5896.15
590.63458252,5949.35
590.915283203,5891.45
591.195922852,5872.75
591.4765625,5920.675
591.757202148,5979.275
592.037780762,5962.475
592.31829834,5948.25
592.598937988,6185.15
592.879394531,6391.4
593.159912109,6290.975
593.440429688,6205.2
593.720825195,6186.625
594.001281738,6183.675
594.281677246,6051.9
594.562072754,6096.15
594.842407227,6207.55
595.122802734,6271.6
595.403137207,6229.025
595.683410645,6192.7
595.963623047,6182.3
596.243896484,6126.425
596.524169922,6135.975
596.804382324,6146.6
597.084533691,6184.525
597.364746094,6225.75
597.644836426,6236.175
597.924987793,6212.475
598.205078125,6194.375
598.485107422,6192.475
598.765197754,6333.125
599.045227051,6429.375
599.325195312,6290.725
599.605224609,6229.35
599.885192871,6308.425
600.165100098,6328.7
600.445007324,6277.45
600.724914551,6283.775
601.004760742,6297.875
601.284667969,6328.95
601.56451416,6299.725
601.844238281,6288.7
602.124084473,6273.7
602.403808594,6283.9
602.683532715,6321.625
602.963256836,6288.55
603.242919922,6363.4
603.522583008,6398.975
603.802246094,6361.925
604.081848145,6314.2
604.36138916,6304.325
604.641052246,6325.95
604.920532227,6288.3
605.200073242,6335.75
605.479614258,6363.25
605.759094238,6413.025
606.038574219,6385.7
606.317932129,6327.575
606.597412109,6302.25
606.87677002,6313.95
607.15612793,6376.575
607.435546875,6392.3
607.714782715,6383.6
607.99407959,6347.725
608.273376465,6304.7
608.552612305,6348.175
608.831848145,6362.975
609.111083984,6371.65
609.390258789,6339.25
609.669433594,6348.15
609.948608398,6406.275
610.227722168,6376.95
610.506713867,6316.7
610.785888672,6337.225
611.064880371,6304.35
611.34387207,6344.425
611.622924805,6331.7
611.901916504,6322.025
612.180847168,6297.15
612.459777832,6277.525
612.738647461,6279.325
613.01751709,6236.7
613.296447754,6201.95
613.575317383,6165.05
613.854064941,6103.35
614.132873535,6012.85
614.411621094,5942.75
614.690368652,5883.375
614.969177246,5839.4
615.247802734,5720.55
615.526489258,5717.125
615.805175781,5594.175
616.08380127,5467.025
616.362365723,5374.0
616.640991211,5345.85
616.919555664,5271.55
617.198059082,5402.05
617.4765625,5714.775
617.755126953,5852.225
618.033569336,5887.275
618.311950684,5903.875
618.590454102,5876.625
618.868774414,5853.2
619.147155762,5870.2
619.425598145,5830.475
619.703857422,5873.475
619.982177734,5870.7
620.260498047,5868.7
620.538757324,5830.45
620.816955566,5792.225
621.095214844,5728.3
621.373413086,5747.4
621.651550293,5809.9
621.929748535,5855.875
622.207824707,5824.375
622.485900879,5852.125
622.764038086,5847.225
623.042053223,5891.875
623.320007324,5917.1
623.598083496,5913.075
623.876037598,5912.825
624.153991699,5921.425
624.432006836,5951.9
624.709838867,5963.35
624.987731934,5938.875
625.265563965,5945.325
625.543395996,5948.5
625.821228027,6006.625
626.098999023,5981.2
626.376831055,6070.725
626.654541016,6052.425
626.932250977,6095.625
627.209960938,6155.7
627.487670898,6174.7
627.765319824,6178.075
628.04296875,6199.525
628.320495605,6206.275
628.598083496,6193.875
628.875671387,6229.95
629.153259277,6274.85
629.430725098,6344.975
629.708251953,6327.55
629.985656738,6359.6
630.263122559,6400.175
630.540588379,6415.925
630.817932129,6467.975
631.095275879,6484.25
631.372680664,6542.375
631.649963379,6606.25
631.927246094,6654.3
632.204589844,6710.925
632.481811523,6762.675
632.759033203,6839.85
633.036254883,6856.225
633.313415527,6929.725
633.590576172,7021.075
633.867736816,7127.5
634.144836426,7196.125
634.421875,7208.475
634.698913574,7302.8
634.976013184,7388.925
635.252990723,7462.675
635.529968262,7481.25
635.807006836,7567.65
636.08392334,7562.05
636.360839844,7448.45
636.637756348,7340.525
636.914611816,7276.525
637.191467285,7276.325
637.468261719,7368.65
637.745056152,7342.225
638.021789551,7339.35
638.298583984,7364.65
638.575317383,7402.125
638.851989746,7397.1
639.12878418,7405.75
639.405395508,7390.3
639.682006836,7417.775
639.958618164,7403.225
640.235229492,7380.85
640.511779785,7492.3
640.788330078,7448.8
641.064880371,7496.05
641.341308594,7433.85
641.617797852,7473.85
641.894226074,7437.675
642.170654297,7451.975
642.44708252,7456.1
642.723388672,7438.075
642.999755859,7443.625
643.276123047,7484.225
643.552429199,7440.375
643.828674316,7455.75
644.104919434,7420.925
644.381164551,7431.5
644.657348633,7424.05
644.933532715,7366.1
645.209716797,7383.95
645.485839844,7386.475
645.761901855,7390.425
646.038024902,7345.625
646.314086914,7368.85
646.590087891,7358.675
646.866149902,7401.775
647.142150879,7354.9
647.41809082,7331.45
647.694030762,7348.6
647.969970703,7330.675
648.245788574,7369.675
648.521728516,7360.45
648.797546387,7332.6
649.073303223,7355.7
649.349182129,7349.225
649.624938965,7314.9
649.900634766,7349.875
650.176391602,7320.95
650.452087402,7292.575
650.727783203,7330.5
651.003479004,7325.125
651.279052734,7356.05
651.554626465,7320.575
651.83026123,7314.375
652.105773926,7339.875
652.381286621,7293.675
652.656860352,7318.9
652.932312012,7355.7
653.207763672,7335.0
653.483215332,7371.875
653.758605957,7379.075
654.033935547,7358.175
654.309326172,7342.275
654.584716797,7346.55
654.859985352,7335.925
655.135253906,7406.425
655.410583496,7431.725
655.685791016,8551.85
655.9609375,13252.375
656.236206055,12965.875
656.511291504,8652.975
656.786437988,7613.625
657.061645508,7490.525
657.336669922,7458.675
657.611694336,7506.525
657.886779785,7531.15
658.161804199,7529.425
658.436828613,7502.9
658.711791992,7528.675
658.986755371,7529.275
659.261657715,7522.375
659.536621094,7550.975
659.811401367,7579.725
660.086303711,7591.675
660.36114502,7572.95
660.635864258,7588.475
660.910644531,7644.7
661.185424805,7625.6
661.460205078,7637.825
661.734863281,7643.475
662.009521484,7635.4
662.284179688,7657.3
662.558776855,7695.075
662.833435059,7742.65
663.108032227,7744.25
663.382568359,7734.35
663.657043457,7772.5
663.93157959,7798.225
664.206054688,7771.75
664.48046875,7843.325
664.755004883,7838.975
665.02935791,7882.9
665.303710938,7864.925
665.578125,7919.1
665.852416992,7916.95
666.126708984,7918.2
666.401062012,7907.875
666.675292969,7954.45
666.949462891,7941.625
667.223754883,7984.05
667.497924805,8056.0
667.772094727,8056.375
668.046264648,7978.45
668.3203125,8088.025
668.594421387,8095.3
668.868469238,8088.45
669.14251709,8137.9
669.416503906,8163.275
669.690551758,8177.0
669.964477539,8200.175
670.23840332,8196.75
670.512329102,8177.675
670.786254883,8172.0
671.060058594,8244.55
671.333984375,8271.55
671.607788086,8290.675
671.881530762,8279.9
672.155334473,8304.175
672.429077148,8325.575
672.702758789,8362.55
672.97644043,8319.325
673.25012207,8375.675
673.523742676,8335.0
673.797302246,8388.25
674.070922852,8421.05
674.344482422,8425.175
674.618041992,8408.925
674.891601562,8431.35
675.165100098,8440.225
675.438476562,8453.775
675.711975098,8491.25
675.985412598,8463.975
676.258789062,8433.825
676.532165527,8511.125
676.805480957,8503.375
677.078796387,8539.2
677.352111816,8595.875
677.625366211,8580.225
677.898620605,8544.45
678.171875,8652.475
678.445007324,8594.95
678.718200684,8657.65
678.991394043,8636.2
679.264404297,8602.3
679.537536621,8652.7
679.81060791,8685.425
680.083679199,8692.775
680.356689453,8695.025
680.629699707,8708.825
680.902648926,8664.95
681.175598145,8712.2
681.448547363,8806.1
681.721435547,8742.0
681.99420166,8765.85
682.267150879,8734.1
682.539916992,8830.175
682.812744141,8794.2
683.085510254,8798.275
683.358215332,8820.85
683.63092041,8816.75
683.903625488,8842.55
684.176330566,8794.0
684.448913574,8774.425
684.721557617,8800.3
684.99420166,8858.025
685.266662598,8840.95
685.539245605,8880.85
685.811767578,8901.375
686.084289551,8934.425
686.356689453,8947.225
686.629150391,8986.6
686.901550293,8999.675
687.17401123,9003.175
687.446350098,9049.975
687.718688965,9007.9
687.990966797,9075.3
688.263305664,9075.3
688.535522461,9064.275
688.807739258,9072.05
689.079956055,9116.775
689.352172852,9154.325
689.624328613,9134.8
689.896484375,9180.025
690.168518066,9197.25
690.440612793,9249.075
690.71270752,9257.15
690.984741211,9220.825
691.256713867,9276.725
691.528747559,9247.6
691.800720215,9258.9
692.072631836,9309.025
692.344543457,9363.125
692.616394043,9363.575
692.888244629,9382.85
693.160095215,9404.8
693.431945801,9475.525
693.703674316,9440.125
693.975463867,9417.625
694.247131348,9488.925
694.518859863,9449.175
694.790588379,9505.65
695.062255859,9518.125
695.33380127,9517.35
695.60546875,9496.1
695.87701416,9531.25
696.148498535,9578.775
696.42010498,9594.225
696.691589355,9617.375
696.96307373,9634.075
697.234558105,9692.1
697.50592041,9673.2
697.777282715,9683.875
698.048706055,9696.05
698.320068359,9741.175
698.591308594,9717.275
698.862670898,9734.775
699.133972168,9774.625
699.405151367,9774.95
699.676391602,9833.425
699.947570801,9821.275
700.21875,9801.25
700.489868164,9828.5
700.761047363,9837.075
701.032104492,9878.1
701.303100586,9829.125
701.57421875,9916.65
701.845214844,9950.425
702.116149902,9980.475
702.387207031,9959.175
702.65814209,9962.475
702.928955078,9999.05
703.199951172,9943.225
703.47076416,9971.075
703.741577148,9942.85
704.012451172,9990.55
704.28314209,9994.475
704.553955078,9971.4
704.824707031,10071.825
705.095397949,10049.05
705.366027832,10046.625
705.63671875,10055.65
705.907348633,10046.3
706.17791748,10067.9
706.448486328,10071.675
706.719055176,10138.2
706.989562988,10150.75
707.260131836,10147.975
707.530517578,10196.275
707.800964355,10173.775
708.071411133,10147.4
708.341796875,10159.825
708.612182617,10124.0
708.882446289,10087.925
709.152893066,10169.75
709.423156738,10163.4
709.693359375,10149.8
709.963623047,10178.575
710.233825684,10221.4
710.503967285,10195.55
710.774169922,10205.975
711.044311523,10180.875
711.31439209,10209.575
711.584533691,10219.525
711.854553223,10256.2
712.124572754,10263.725
712.39465332,10195.175
712.664611816,10245.65
712.934509277,10319.9
713.204467773,10256.6
713.474365234,10284.425
713.74420166,10264.175
714.014099121,10290.275
714.283874512,10292.9
714.553710938,10316.775
714.823486328,10319.775
715.093200684,10278.375
715.362915039,10324.8
715.632629395,10287.525
715.902282715,10295.875
716.171875,10300.7
716.441589355,10317.5
716.711181641,10271.0
716.980712891,10291.625
717.250244141,10320.425
717.519775391,10324.95
717.78918457,10314.225
718.058654785,10404.1
718.328125,10426.2
718.597473145,10359.6
718.866882324,10337.075
719.136230469,10368.925
719.405578613,10429.825
719.674865723,10418.325
719.944152832,10387.775
720.213439941,10352.925
720.48260498,10422.25
720.75177002,10451.2
721.020996094,10454.625
721.290100098,10448.125
721.559204102,10414.45
721.828308105,10473.85
722.097351074,10438.1
722.366455078,10399.975
722.635437012,10405.025
722.904418945,10380.425
723.173400879,10439.875
723.442321777,10467.55
723.711181641,10421.9
723.980102539,10461.475
724.248962402,10427.8
724.51776123,10409.475
724.786560059,10497.875
725.055358887,10480.125
725.324035645,10444.675
725.592834473,10484.55
725.86151123,10466.4
726.130187988,10486.4
726.398803711,10423.025
726.667419434,10465.775
726.935974121,10456.55
727.204528809,10413.525
727.473083496,10413.5
727.741638184,10390.575
728.010070801,10336.875
728.278564453,10315.825
728.546936035,10368.575
728.815368652,10240.675
729.08380127,10158.1
729.352111816,10183.475
729.620361328,10085.925
729.88873291,10146.0
730.156982422,10207.95
730.425231934,10220.275
730.693481445,10184.35
730.961669922,10255.225
731.229797363,10330.55
731.49798584,10327.125
731.766113281,10399.125
732.034118652,10469.825
732.302246094,10567.325
732.570251465,10599.425
732.838256836,10635.4
733.106262207,10751.45
733.374145508,10763.325
733.642089844,10815.875
733.909973145,10860.5
734.177856445,10964.725
734.445678711,11062.6
734.713562012,11165.6
734.981323242,11167.925
735.249084473,11225.3
735.516845703,11368.7
735.784545898,11455.1
736.052185059,11493.425
736.319885254,11611.35
736.587524414,11683.7
736.855102539,11768.325
737.122619629,11929.675
737.390197754,11940.525
737.657714844,12058.95
737.925170898,12102.875
738.192749023,12264.65
738.460144043,12311.6
738.727539062,12397.775
738.994995117,12512.775
739.262329102,12580.6
739.529663086,12732.275
739.79699707,12765.55
740.06427002,12859.05
740.331481934,12935.625
740.598754883,13053.8
740.865905762,13028.2
741.133056641,13217.7
741.40032959,13203.2
741.667358398,13329.125
741.934448242,13338.425
742.201599121,13362.7
742.468566895,13486.7
742.735534668,13565.0
743.002563477,13569.025
743.26953125,13549.675
743.536437988,13652.525
743.803405762,13783.65
744.0703125,13717.325
744.337097168,13846.9
744.604003906,13750.35
744.870727539,13810.725
745.137512207,13847.2
745.40423584,13862.65
745.670959473,13853.525
745.93762207,13878.95
746.204284668,13955.95
746.470947266,13962.8
746.737548828,13952.2
747.004089355,13969.075
747.270751953,13982.2
747.53717041,14026.075
747.803710938,13951.425
748.070251465,13947.0
748.336608887,13963.575
748.603027344,13898.575
748.869445801,13873.025
749.135803223,13908.975
749.402099609,13884.275
749.668457031,13921.875
749.934753418,13899.9
750.20098877,13851.725
750.467224121,13916.9
750.733459473,13877.1
750.999572754,13847.6
751.26574707,13762.6
751.531860352,13829.85
751.797912598,13781.85
752.064025879,13734.9
752.330078125,13724.425
752.596069336,13693.3
752.862060547,13649.975
753.127990723,13684.8
753.393920898,13648.625
753.659912109,13544.25
753.925720215,13629.85
754.19152832,13572.05
754.457397461,13529.0
754.723144531,13491.425
754.988952637,13406.35
755.254699707,13427.2
755.520385742,13449.15
755.786071777,13428.225
756.051696777,13413.25
756.317382812,13337.225
756.582946777,13282.1
756.848510742,13350.175
757.114074707,13288.8
757.379577637,13264.85
757.645080566,13312.5
757.910583496,13247.95
758.175964355,13159.825
758.441345215,13153.55
758.706848145,12977.175
758.972106934,13011.975
759.237426758,13064.175
759.502807617,13079.275
759.768005371,13024.95
760.03326416,12987.875
760.298522949,12933.85
760.563659668,12977.325
760.828857422,12916.0
761.093994141,12907.25
761.359130859,12833.775
761.624206543,12831.975
761.889282227,12805.95
762.15423584,12790.725
762.419250488,12761.675
762.684265137,12702.175
762.949157715,12715.075
763.214050293,12705.95
763.479003906,12671.125
763.743835449,12660.95
764.008666992,12603.875
764.2734375,12627.55
764.538208008,12639.025
764.802978516,12657.15
765.067687988,12588.125
765.332397461,12606.7
765.597045898,12536.125
765.861694336,12498.95
766.126342773,12466.825
766.390930176,12421.675
766.655395508,12402.475
766.920043945,12374.5
767.184509277,12383.55
767.448974609,12376.225
767.713439941,12338.55
767.977783203,12276.2
768.2421875,12333.5
768.506591797,12277.725
768.770874023,12385.65
769.03515625,12321.375
769.299499512,12288.25
769.563720703,12301.725
769.827941895,12219.575
770.092163086,12208.225
770.356323242,12177.125
770.620483398,12230.425
770.88458252,12263.425
771.148681641,12243.825
771.412719727,12181.125
771.676757812,12238.175
771.940734863,12178.625
772.204711914,12162.9
772.468688965,12107.375
772.73260498,12093.025
772.996459961,12139.925
773.260314941,10813.2
773.524169922,1364.3
773.787963867,159.9
774.051696777,123.475
774.315551758,120.775
774.579223633,121.55
774.842895508,119.725
775.106567383,121.075
775.370239258,115.775
775.633789062,121.8
775.897399902,124.875
776.160949707,114.9
776.424499512,121.3
776.687988281,121.55
776.951477051,122.35
777.214904785,121.1
777.47833252,118.1
