191.299911499,101.525
191.603515625,105.3
191.907119751,96.15
192.210693359,106.6
192.514251709,98.7
192.817810059,104.375
193.121368408,102.3
193.42489624,108.475
193.728408813,101.3
194.031936646,101.2
194.33543396,92.9
194.638916016,111.675
194.94241333,98.175
195.245880127,97.75
195.549331665,97.15
195.852767944,99.25
196.156204224,191.725
196.459625244,188.125
196.763015747,190.95
197.066436768,196.875
197.369812012,190.475
197.673187256,193.575
197.9765625,189.725
198.279922485,191.65
198.583251953,185.375
198.886581421,189.425
199.18989563,196.45
199.493209839,192.925
199.79649353,188.1
200.09979248,195.075
200.403076172,190.575
200.706314087,195.85
201.009567261,189.125
201.312820435,192.875
201.616027832,182.675
201.919235229,180.35
202.222457886,187.275
202.525634766,190.025
202.828826904,179.675
203.132003784,179.975
203.435150146,184.65
203.738296509,184.3
204.041412354,182.6
204.344558716,187.875
204.647659302,187.55
204.950759888,186.675
205.253845215,186.6
205.556930542,180.35
205.859985352,184.05
206.163024902,186.1
206.466079712,184.125
206.769104004,194.975
207.072113037,186.05
207.375137329,185.75
207.678131104,189.15
207.981109619,187.3
208.284088135,184.725
208.587036133,191.725
208.889984131,191.4
209.19291687,190.1
209.495849609,192.175
209.798751831,191.4
210.101654053,187.275
210.404556274,193.575
210.707427979,189.825
211.010269165,199.925
211.31312561,200.1
211.615982056,197.175
211.918807983,195.625
212.221618652,195.05
212.524429321,191.775
212.827224731,198.1
213.130004883,198.175
213.432769775,199.875
213.735534668,201.55
214.038269043,201.375
214.341003418,201.125
214.643737793,205.3
214.946456909,206.075
215.249145508,208.875
215.551834106,208.9
215.854507446,209.625
216.157165527,208.4
216.45980835,206.5
216.762451172,213.725
217.065078735,216.7
217.36769104,213.975
217.670303345,220.65
217.972885132,218.475
218.275466919,224.0
218.578048706,211.0
218.880599976,226.1
219.183120728,225.9
219.485656738,230.425
219.788192749,245.075
220.090682983,252.25
220.393188477,266.45
220.695663452,294.95
220.998138428,312.45
221.300582886,356.3
221.603042603,383.3
221.905487061,425.7
222.207901001,480.5
222.510299683,538.8
222.812728882,611.575
223.115097046,692.65
223.41746521,764.95
223.719848633,835.9
224.022171021,923.325
224.324508667,1015.125
224.626846313,1125.175
224.929168701,1205.975
225.231460571,1310.05
225.533737183,1406.575
225.836013794,1506.05
226.138290405,1605.425
226.440536499,1683.025
226.742767334,1772.9
227.044998169,1841.975
227.347213745,1947.075
227.649429321,2017.7
227.951629639,2081.45
228.253799438,2151.7
228.555953979,2200.7
228.858123779,2255.75
229.160263062,2309.2
229.462371826,2355.275
229.764511108,2390.0
230.066619873,2430.8
230.36869812,2480.475
230.670776367,2514.825
230.972854614,2581.475
231.274902344,2621.575
231.576950073,2687.1
231.878967285,2708.425
232.180999756,2759.15
232.48298645,2804.025
232.784988403,2878.275
233.086975098,2903.4
233.388946533,2953.8
233.69090271,3026.95
233.992858887,3052.75
234.294769287,3087.35
234.596694946,3136.925
234.898605347,3181.025
235.200500488,3202.05
235.502380371,3279.0
235.804244995,3278.85
236.106109619,3290.625
236.407958984,3334.9
236.709777832,3359.65
237.011581421,3390.05
237.313400269,3399.975
237.615203857,3428.725
237.916976929,3457.75
238.21875,3463.175
238.520507812,3503.45
238.822250366,3528.425
239.12399292,3531.725
239.425704956,3596.95
239.727401733,3578.35
240.02911377,3602.575
240.330780029,3603.275
240.632446289,3655.05
240.93409729,3673.3
241.23576355,3708.025
241.537384033,3741.175
241.839004517,3785.35
242.140594482,3781.575
242.442199707,3845.175
242.743774414,3902.725
243.045333862,3913.8
243.346923828,3953.25
243.648452759,4024.375
243.949966431,4036.125
244.251495361,4090.775
244.552993774,4137.7
244.854492188,4142.9
245.155975342,4214.075
245.457443237,4245.025
245.758880615,4262.3
246.060333252,4287.55
246.36177063,4322.725
246.66317749,4354.9
246.964569092,4384.675
247.265945435,4418.95
247.567337036,4459.025
247.86869812,4521.85
248.170059204,4596.525
248.471389771,4620.25
248.772705078,4689.05
249.074035645,4753.95
249.375335693,4818.375
249.676620483,4899.825
249.977890015,4981.025
250.279159546,5072.2
250.58039856,5159.175
250.881637573,5245.025
251.182876587,5342.175
251.484069824,5458.275
251.785263062,5533.8
252.086456299,5670.975
252.387619019,5772.5
252.688781738,5839.525
252.989929199,5940.6
253.291061401,6035.6
253.592178345,6176.525
253.893280029,6286.325
254.194366455,6336.525
254.49546814,6385.675
254.796524048,6462.875
255.097579956,6546.875
255.398620605,6573.55
255.699645996,6672.225
256.000640869,6700.675
256.30166626,6749.925
256.602661133,6807.225
256.903656006,6800.675
257.204589844,6830.75
257.505523682,6838.7
257.80645752,6898.025
258.107391357,6844.3
258.408294678,6829.925
258.709228516,6789.75
259.010070801,6751.875
259.310943604,6742.225
259.611846924,6695.425
259.912658691,6659.55
260.213500977,6624.8
260.514343262,6551.625
260.815124512,6474.475
261.115936279,6429.5
261.416717529,6418.15
261.717468262,6373.55
262.018218994,6336.175
262.318969727,6329.7
262.619689941,6327.55
262.920410156,6371.475
263.221130371,6408.25
263.521789551,6423.75
263.822479248,6474.075
264.123138428,6490.475
264.42376709,6504.4
264.72442627,6497.55
265.025054932,6481.925
265.325622559,6475.025
265.626251221,6466.825
265.926818848,6440.35
266.227386475,6364.075
266.527954102,6295.725
266.828460693,6295.975
267.12902832,6183.6
267.429534912,6136.825
267.730010986,6072.0
268.030517578,6027.025
268.330993652,5980.225
268.631439209,5914.525
268.931915283,5882.8
269.232299805,5826.7
269.532745361,5773.9
269.8331604,5708.8
270.133544922,5723.1
270.433929443,5680.65
270.734313965,5632.875
271.034637451,5650.85
271.334991455,5606.525
271.635314941,5620.55
271.935638428,5598.575
272.235931396,5637.275
272.536254883,5680.325
272.836486816,5700.9
273.136749268,5762.3
273.437011719,5826.875
273.737213135,5935.075
274.037445068,6002.0
274.337677002,6087.925
274.6378479,6131.725
274.938049316,6248.8
275.238220215,6314.425
275.538360596,6452.875
275.838500977,6495.775
276.138641357,6627.625
276.438751221,6664.7
276.738830566,6750.8
277.03894043,6795.65
277.338989258,6895.075
277.639038086,6971.85
277.939056396,6988.475
278.239105225,7037.375
278.539093018,7125.725
278.839141846,7160.9
279.139129639,7217.475
279.439086914,7293.175
279.739044189,7317.975
280.039001465,7406.25
280.338928223,7419.075
280.63885498,7467.3
280.938781738,7502.8
281.238647461,7513.65
281.538513184,7513.55
281.838409424,7541.9
282.138244629,7583.5
282.438079834,7564.025
282.737945557,7608.05
283.037719727,7592.475
283.337524414,7610.375
283.637298584,7619.275
283.937072754,7607.675
284.236816406,7609.1
284.536560059,7586.075
284.836303711,7616.0
285.136016846,7667.325
285.43572998,7649.475
285.735412598,7617.75
286.035064697,7618.8
286.334747314,7652.775
286.634368896,7654.025
286.933990479,7570.65
287.233642578,7506.325
287.533203125,7510.3
287.832824707,7455.025
288.132385254,7322.55
288.431945801,7232.25
288.731506348,7090.8
289.031036377,6938.375
289.330566406,6818.0
289.630065918,6827.925
289.92956543,6771.35
290.229034424,6844.225
290.528503418,7032.6
290.827941895,7184.025
291.127380371,7268.25
291.42678833,7416.725
291.726226807,7513.525
292.025604248,7533.5
292.324981689,7582.6
292.624359131,7577.625
292.923736572,7567.45
293.223052979,7598.025
293.522369385,7590.9
293.821685791,7556.1
294.12097168,7534.825
294.420257568,7501.025
294.719543457,7472.825
295.018768311,7456.9
295.318023682,7366.275
295.617248535,7348.125
295.916442871,7287.35
296.215667725,7220.325
296.514862061,7077.375
296.813995361,6883.475
297.11315918,6717.975
297.412322998,6580.425
297.711425781,6550.375
298.010559082,6679.975
298.309631348,6872.2
298.608734131,7068.25
298.907806396,7232.175
299.206848145,7395.5
299.505889893,7449.5
299.804901123,7546.075
300.103912354,7607.575
300.402954102,7671.2
300.701904297,7720.6
301.00088501,7816.625
301.299835205,7869.025
301.5987854,7880.475
301.897735596,7980.35
302.196624756,7987.45
302.495513916,8076.1
302.794403076,8121.8
303.093292236,8163.85
303.392120361,8208.075
303.690979004,8308.85
303.989837646,8314.75
304.288604736,8378.25
304.587402344,8369.25
304.886199951,8432.175
305.184967041,8444.075
305.483734131,8489.6
305.782501221,8527.5
306.081176758,8535.3
306.37991333,8570.5
306.678619385,8568.725
306.977294922,8594.4
307.275970459,8599.125
307.574645996,8633.45
307.873260498,8625.375
308.171875,8588.025
308.470489502,8608.125
308.769104004,8513.375
309.067687988,8525.925
309.366241455,8547.5
309.664794922,8522.65
309.963348389,8502.075
310.261871338,8512.6
310.560394287,8537.3
310.858856201,8549.425
311.157348633,8570.2
311.455810547,8573.975
311.754272461,8606.625
312.052703857,8684.65
312.351135254,8692.025
312.649536133,8679.525
312.947937012,8647.45
313.246307373,8713.575
313.544647217,8703.25
313.843017578,8628.525
314.141387939,8630.775
314.439697266,8680.125
314.738006592,8589.65
315.036315918,8505.575
315.334564209,8443.25
315.6328125,8392.4
315.931091309,8328.325
316.229309082,8218.725
316.527526855,8095.45
316.825744629,8057.1
317.123901367,7957.2
317.422088623,7934.35
317.720245361,7917.5
318.0184021,7932.275
318.316497803,7994.75
318.614654541,8020.7
318.912750244,8073.85
319.21081543,8108.85
319.50894165,8114.0
319.806945801,8124.45
320.104980469,8104.175
320.403045654,8095.725
320.701049805,8056.75
320.999023438,8052.275
321.297027588,8023.975
321.595001221,8011.85
321.892913818,7960.375
322.190887451,7912.6
322.488830566,7858.75
322.786712646,7829.275
323.084625244,7728.3
323.382507324,7723.025
323.680358887,7635.225
323.978210449,7556.85
324.276062012,7498.1
324.573852539,7451.175
324.871643066,7417.1
325.169464111,7338.45
325.467224121,7307.125
325.764984131,7222.75
326.062744141,7163.35
326.360473633,7072.15
326.658203125,7050.025
326.955871582,6945.175
327.253570557,6908.95
327.551239014,6850.15
327.848907471,6795.15
328.146514893,6711.05
328.444152832,6647.35
328.741790771,6599.575
329.039367676,6543.95
329.336914062,6490.05
329.634521484,6425.15
329.932067871,6397.125
330.229553223,6299.5
330.527160645,6278.9
330.824615479,6207.475
331.12210083,6151.2
331.419586182,6043.8
331.717041016,5993.2
332.014465332,5899.95
332.311920166,5873.25
332.609313965,5832.5
332.906707764,5811.125
333.204101562,5791.825
333.501495361,5807.875
333.798828125,5871.55
334.096160889,5887.425
334.39352417,5963.025
334.690795898,5996.0
334.988098145,6049.45
335.285400391,6109.275
335.582641602,6085.2
335.879882812,6136.75
336.177124023,6152.525
336.474334717,6219.975
336.77154541,6201.65
337.068725586,6229.9
337.365905762,6223.6
337.66305542,6226.05
337.960205078,6270.1
338.257324219,6283.225
338.554443359,6275.65
338.8515625,6312.75
339.148590088,6296.3
339.445648193,6312.175
339.742736816,6273.875
340.039764404,6274.175
340.336761475,6236.475
340.63381958,6188.4
340.930755615,6159.35
341.227722168,6070.25
341.524688721,6012.025
341.821624756,5966.4
342.118560791,5989.45
342.415496826,6081.85
342.712402344,6190.9
343.009246826,6339.825
343.306121826,6434.85
343.602966309,6474.125
343.899810791,6585.125
344.196624756,6680.15
344.493438721,6692.35
344.79019165,6714.975
345.086975098,6785.3
345.383758545,6829.45
345.680480957,6804.725
345.977203369,6822.325
346.273956299,6876.975
346.570617676,6851.275
346.86730957,6870.9
347.163970947,6836.575
347.460601807,6905.075
347.757232666,6893.525
348.053894043,6864.975
348.350463867,6811.8
348.647064209,6795.2
348.943634033,6791.875
349.24017334,6779.75
349.536712646,6741.375
349.833251953,6749.9
350.129760742,6732.725
350.426208496,6728.7
350.722747803,6676.75
351.019195557,6665.925
351.315612793,6637.35
351.612060547,6615.85
351.908508301,6551.75
352.204864502,6510.05
352.501281738,6460.125
352.797637939,6386.175
353.093963623,6314.2
353.390319824,6265.675
353.686645508,6192.3
353.982940674,6112.3
354.27923584,6074.775
354.575531006,6012.75
354.871765137,6024.725
355.167999268,5985.725
355.464233398,6009.55
355.760437012,6010.25
356.056640625,5993.875
356.352813721,6028.125
356.648956299,6009.025
356.945129395,6035.925
357.241271973,6027.15
357.537384033,6049.25
357.833496094,5990.1
358.129577637,5980.05
358.425628662,5946.625
358.721679688,5935.2
359.017730713,5905.275
359.313720703,5846.725
359.609710693,5812.4
359.905761719,5754.15
360.201721191,5734.975
360.497650146,5685.95
360.793609619,5666.45
361.089538574,5586.05
361.385437012,5508.675
361.681365967,5480.35
361.977233887,5437.25
362.273071289,5373.125
362.568908691,5267.65
362.864746094,5155.575
363.160552979,5030.675
363.456359863,4866.3
363.752166748,4729.575
364.047912598,4635.275
364.343658447,4626.325
364.639434814,4641.45
364.935119629,4673.575
365.230834961,4740.85
365.526550293,4758.125
365.822174072,4796.3
366.117858887,4811.7
366.413482666,4845.625
366.709075928,4863.25
367.004730225,4767.55
367.300292969,4769.6
367.595855713,4824.175
367.891448975,4710.075
368.186981201,4604.3
368.482513428,4582.55
368.778015137,4565.3
369.073547363,4512.65
369.36895752,4542.675
369.664428711,4440.0
369.95993042,4326.75
370.255310059,4291.15
370.550720215,4265.55
370.846160889,4224.125
371.14151001,4187.525
371.436859131,4168.25
371.73223877,4158.425
372.027557373,4097.575
372.322875977,4053.875
372.618164062,4022.15
372.913482666,3989.55
373.208709717,3967.05
373.503967285,3908.15
373.799194336,3891.625
374.094421387,3860.375
374.389648438,3843.025
374.684844971,3833.75
374.979980469,3885.275
375.275146484,3895.775
375.570281982,3897.4
375.865386963,3934.325
376.160522461,3859.15
376.455596924,3883.0
376.750640869,3969.975
377.045715332,3973.0
377.340759277,4006.125
377.635772705,4085.475
377.93081665,4076.55
378.225769043,4170.3
378.520751953,4226.2
378.815734863,4205.875
379.110656738,4336.525
379.405548096,4496.775
379.700500488,4363.575
379.995391846,4152.55
380.290252686,4200.425
380.585083008,4291.525
380.879974365,4336.725
381.17477417,4256.175
381.469543457,4212.2
381.764404297,4193.9
382.059143066,4218.05
382.353912354,4295.3
382.648651123,4388.975
382.943389893,4374.6
383.238067627,4191.5
383.532775879,4220.65
383.827484131,4167.225
384.12210083,4151.75
384.416778564,4104.05
384.711425781,4005.725
385.006011963,4038.025
385.300628662,4020.425
385.595184326,4095.275
385.88973999,4196.125
386.184295654,4298.7
386.478820801,4380.825
386.77331543,4460.6
387.067840576,4566.9
387.362335205,4671.575
387.656768799,4721.9
387.951202393,4749.375
388.245635986,4830.075
388.540039062,4915.625
388.834472656,4977.15
389.128875732,4883.225
389.423187256,4637.35
389.717559814,4589.75
390.011871338,4696.575
390.306182861,4739.475
390.600463867,4732.85
390.894775391,4813.05
391.189025879,4846.15
391.48324585,4832.225
391.777526855,4889.375
392.071685791,5091.9
392.365875244,5199.4
392.660064697,5245.575
392.95425415,5591.55
393.248382568,5570.375
393.542510986,5096.6
393.836608887,4936.6
394.130706787,4932.45
394.424804688,4878.675
394.71887207,4996.5
395.012878418,4955.875
395.306915283,4880.625
395.600921631,4808.15
395.894927979,4760.425
396.188903809,4806.85
396.482879639,4839.1
396.776794434,5030.775
397.070739746,5000.15
397.364654541,4998.375
397.658538818,5401.975
397.952423096,5437.325
398.246307373,5375.275
398.540100098,5901.85
398.833953857,5787.825
399.127746582,5300.15
399.421508789,5295.7
399.715301514,5251.375
400.009063721,5148.575
400.30279541,5019.1
400.596496582,4926.025
400.890258789,5072.425
401.183929443,5169.25
401.47756958,5055.625
401.771240234,4852.7
402.064880371,4858.65
402.35848999,4913.9
402.652130127,4812.375
402.945678711,4869.05
403.239257812,4815.5
403.532775879,4753.15
403.82635498,4817.075
404.119842529,4715.3
404.413360596,4701.225
404.706848145,4762.05
405.000274658,4708.625
405.293762207,4782.55
405.587188721,4825.575
405.880584717,4680.15
406.17401123,4478.65
406.467407227,4277.325
406.760742188,4300.75
407.054107666,4330.0
407.347442627,4252.5
407.640716553,4230.7
407.934051514,4305.85
408.227325439,4360.725
408.520568848,4576.3
408.813842773,4667.075
409.107086182,4467.825
409.400238037,4421.1
409.693450928,4348.9
409.986633301,4458.725
410.279754639,4379.025
410.572875977,4106.1
410.86605835,4032.275
411.159118652,4048.175
411.452209473,4053.825
411.745330811,3913.575
412.038360596,3833.525
412.331390381,3873.475
412.624420166,3911.0
412.917388916,3825.3
413.210388184,3636.8
413.503387451,3618.15
413.796295166,3507.525
414.089233398,3338.2
414.382141113,3260.2
414.675048828,3257.975
414.967926025,3274.1
415.260803223,3236.775
415.55368042,3248.05
415.846466064,3198.45
416.139282227,3303.925
416.432098389,3417.35
416.724853516,3411.675
417.017608643,3337.15
417.31036377,3370.8
417.603088379,3503.05
417.895782471,3473.075
418.188476562,3413.8
418.481140137,3495.9
418.773803711,3538.35
419.066436768,3512.025
419.359039307,3586.475
419.651641846,3613.525
419.944244385,3592.65
420.236816406,3551.175
420.529327393,3759.25
420.821899414,3838.15
421.114379883,3760.5
421.406860352,4039.85
421.699371338,4239.675
421.991821289,4194.175
422.284240723,4001.75
422.576721191,3851.8
422.869110107,3750.6
423.161468506,3695.775
423.453857422,3735.375
423.74621582,3618.3
424.038543701,3489.625
424.330871582,3445.525
424.623168945,3369.8
424.915435791,3508.15
425.207702637,3476.475
425.499969482,3430.075
425.792205811,3365.925
426.084411621,3102.425
426.376617432,3195.075
426.668762207,3263.6
426.9609375,3136.425
427.253082275,3251.6
427.545196533,3675.475
427.837310791,3399.1
428.129425049,3093.875
428.421447754,3316.875
428.713531494,3316.75
429.005554199,3311.775
429.297576904,3328.375
429.589599609,3729.325
429.881561279,4050.375
430.173522949,3827.7
430.465484619,3787.85
430.757415771,3869.15
431.049316406,3633.2
431.341186523,3398.225
431.633117676,3306.0
431.924957275,3009.675
432.21673584,2902.325
432.508636475,3056.35
432.800415039,3073.25
433.092163086,2953.875
433.383972168,2944.75
433.675689697,3639.525
433.967437744,4103.525
434.259155273,3177.875
434.550872803,2875.775
434.842498779,2924.75
435.134185791,3049.4
435.425842285,3074.6
435.717437744,2965.7
436.009063721,2802.925
436.30065918,2929.4
436.592224121,3269.525
436.883758545,3085.075
437.175323486,2818.075
437.466827393,2799.05
437.758331299,2826.575
438.049804688,2838.8
438.341247559,2900.075
438.63269043,2981.45
438.924163818,2963.4
439.215515137,2927.675
439.50692749,2823.55
439.798309326,2839.75
440.089660645,2839.725
440.380981445,2744.1
440.672332764,2750.475
440.963623047,3007.35
441.254882812,3474.125
441.546173096,3659.175
441.837402344,3398.675
442.128631592,3210.25
442.41986084,3184.925
442.711029053,3061.65
443.002197266,3127.675
443.293365479,3306.25
443.584503174,3448.475
443.875610352,3411.575
444.166717529,3149.85
444.457794189,3211.575
444.748840332,3189.725
445.039916992,3136.375
445.330932617,3243.6
445.621948242,3087.25
445.912963867,2888.95
446.203918457,3112.9
446.494812012,3354.9
446.785827637,3149.1
447.076721191,2974.925
447.367584229,2953.475
447.658447266,2914.625
447.949371338,2979.85
448.24017334,2861.775
448.530975342,2778.425
448.821838379,2963.75
449.112579346,3020.125
449.40335083,2954.375
449.694152832,2996.425
449.984863281,2993.875
450.27557373,2928.35
450.56628418,2990.25
450.856933594,2989.35
451.147583008,2850.9
451.438262939,2748.775
451.728881836,2941.575
452.019470215,3050.625
452.310089111,2821.425
452.600646973,2863.75
452.891174316,2907.0
453.181732178,2737.85
453.472229004,2615.125
453.762695312,2726.525
454.053222656,2756.025
454.343658447,2619.575
454.634063721,2558.2
454.924530029,2735.65
455.214935303,2867.85
455.505279541,2942.0
455.795715332,2801.75
456.086029053,2624.575
456.376312256,2599.95
456.666687012,2614.825
456.956939697,2721.475
457.247192383,2727.275
457.537445068,2799.55
457.827728271,2992.425
458.117919922,2907.275
458.408081055,2822.425
458.698303223,3028.9
458.988433838,2953.975
459.278564453,2770.575
459.568725586,3044.375
459.858825684,3154.175
460.148864746,2844.575
460.438995361,2815.675
460.729034424,2867.95
461.019042969,2875.525
461.309082031,3067.625
461.599060059,2957.475
461.889007568,2499.75
462.179016113,2333.0
462.468933105,2562.025
462.75881958,2676.9
463.048736572,2410.175
463.338592529,2680.8
463.628448486,3034.275
463.918365479,2734.675
464.2081604,2916.2
464.497924805,2875.5
464.787780762,2981.775
465.077514648,3287.575
465.367218018,2913.65
465.657012939,3095.75
465.946685791,3503.425
466.236358643,3120.0
466.526092529,2600.95
466.815734863,2593.6
467.105316162,2513.825
467.394927979,2550.25
467.684570312,2412.15
467.974121094,2511.075
468.263671875,2600.675
468.553222656,2394.375
468.842773438,2280.95
469.132232666,2190.25
469.42175293,2197.125
469.711212158,2188.175
470.000640869,2072.625
470.290100098,2123.55
470.579498291,2161.55
470.868835449,2158.575
471.158294678,2120.15
471.447601318,2097.425
471.736907959,2163.7
472.026275635,2227.525
472.315551758,2217.05
472.604797363,2221.3
472.894104004,2337.5
473.183319092,2444.775
473.47253418,2439.825
473.761779785,2413.4
474.05090332,2363.25
474.340087891,2307.15
474.629241943,2238.125
474.918365479,2411.825
475.207427979,2685.475
475.496551514,2715.025
475.785614014,2448.8
476.074645996,2244.475
476.363708496,2348.275
476.652679443,2483.275
476.941650391,2314.075
477.230682373,2159.4
477.519622803,2149.3
477.808502197,2303.775
478.097412109,2558.025
478.386352539,2499.675
478.675201416,2261.525
478.964050293,2148.75
479.25289917,2333.625
479.541717529,2386.875
479.830474854,2232.375
480.11932373,2575.85
480.408050537,2742.275
480.696777344,2375.475
480.985534668,2248.125
481.274200439,2332.875
481.562866211,2567.875
481.851593018,2593.9
482.140197754,2540.475
482.428833008,2382.2
482.717468262,2174.1
483.006011963,2203.475
483.294586182,2339.1
483.5831604,2358.925
483.871673584,2240.475
484.16015625,2380.15
484.448699951,2602.325
484.7371521,2646.725
485.02557373,2646.75
485.314025879,2381.775
485.602416992,3698.8
485.890777588,13177.05
486.179199219,11719.425
486.467559814,3145.275
486.755859375,2282.8
487.044219971,2663.45
487.332519531,2824.275
487.620758057,2443.1
487.908966064,2172.2
488.197265625,1990.375
488.485473633,1896.15
488.773651123,1991.125
489.061859131,1995.8
489.350006104,1952.15
489.638122559,1893.05
489.926300049,1907.075
490.214355469,1863.9
490.502441406,1812.2
490.790527344,1752.15
491.078552246,1942.0
491.366546631,1950.25
491.654602051,1705.65
491.942565918,1775.375
492.230499268,1811.1
492.518493652,1796.35
492.806396484,1815.275
493.094268799,1723.65
493.382202148,1763.575
493.670074463,1885.55
493.957885742,1737.95
494.245727539,1728.25
494.533508301,1901.65
494.821289062,1789.75
495.109100342,1637.875
495.396850586,1581.375
495.684539795,1533.05
495.972290039,1744.625
496.25994873,2089.975
496.547607422,2081.55
496.835296631,1922.15
497.122894287,1593.825
497.410522461,1516.55
497.6980896,1515.3
497.985687256,1485.5
498.273223877,1591.175
498.560760498,1657.55
498.848266602,1666.45
499.135772705,1651.85
499.423217773,1699.95
499.710693359,1786.625
499.998138428,1715.025
500.285522461,1569.3
500.572937012,1496.325
500.860290527,1545.05
501.147644043,1648.05
501.434997559,1866.275
501.722290039,1729.475
502.00958252,1509.65
502.296875,1764.75
502.584106445,1744.25
502.871337891,1570.45
503.158599854,1637.625
503.445770264,1720.6
503.732910156,1700.75
504.020141602,1514.65
504.307220459,1499.675
504.594329834,1539.575
504.881469727,1460.2
505.168518066,1545.65
505.455535889,1603.975
505.742614746,1491.0
506.029632568,1424.425
506.316589355,1612.025
506.603637695,1701.2
506.890563965,1499.05
507.177459717,1338.675
507.464385986,1261.6
507.751312256,1481.0
508.038146973,1558.325
508.325012207,1430.7
508.611877441,1470.175
508.898681641,1474.725
509.185424805,1333.6
509.472259521,1293.975
509.759002686,1377.25
510.045715332,1404.85
510.332458496,1357.325
510.619140625,1416.075
510.905761719,1334.925
511.192504883,1318.25
511.479095459,1364.225
511.765686035,1316.8
512.052307129,1228.7
512.338928223,1182.825
512.625427246,1218.65
512.91204834,1289.5
513.198486328,1272.825
513.484985352,1246.35
513.77142334,1173.15
514.057922363,1209.3
514.344299316,1214.65
514.63079834,1169.9
514.917175293,1170.225
515.203552246,1067.3
515.489868164,1044.65
515.776245117,1159.15
516.0625,1209.125
516.348815918,1115.8
516.635070801,1157.4
516.921325684,1203.725
517.207580566,1143.975
517.493774414,1060.125
517.779968262,1061.8
518.066101074,1105.275
518.352294922,1052.75
518.638366699,1058.85
518.924499512,1141.95
519.210632324,1207.35
519.496643066,1161.2
519.782714844,1073.4
520.068786621,1047.15
520.354736328,1006.675
520.640686035,965.35
520.926757812,1016.7
521.212646484,1090.225
521.498535156,1094.35
521.784484863,1052.75
522.0703125,978.275
522.356262207,993.425
522.642089844,1062.3
522.927856445,1058.75
523.213684082,1056.75
523.499511719,1049.625
523.78527832,1087.875
524.070983887,1142.475
524.356750488,1114.2
524.64239502,1075.775
524.928039551,1065.85
525.213806152,1081.425
525.499389648,1066.75
525.784973145,1102.6
526.070617676,1157.1
526.356140137,1114.9
526.641723633,1115.675
526.927307129,1175.45
527.212768555,1184.65
527.498291016,1164.75
527.783752441,1162.85
528.069213867,1143.65
528.354675293,1160.1
528.640014648,1319.975
528.925476074,1393.2
529.21081543,1314.925
529.496154785,1291.625
529.781555176,1261.225
530.066833496,1280.225
530.352050781,1285.525
530.637390137,1284.725
530.922607422,1278.65
531.207824707,1280.675
531.493041992,1261.875
531.778198242,1331.375
532.063354492,1316.15
532.348571777,1263.375
532.633666992,1274.4
532.918762207,1354.625
533.203857422,1435.2
533.488891602,1457.35
533.773925781,1413.975
534.059020996,1391.55
534.343933105,1409.6
534.628967285,1395.8
534.91394043,1406.325
535.198852539,1415.1
535.483703613,1405.825
535.768676758,1324.9
536.053527832,1345.575
536.338317871,1309.75
536.62322998,1233.4
536.90802002,1216.7
537.192810059,1227.175
537.477539062,1315.4
537.762329102,1352.8
538.047058105,1402.375
538.331726074,1417.325
538.616455078,1417.45
538.901123047,1401.975
539.18572998,1437.425
539.470397949,1438.075
539.755004883,1438.6
540.039550781,1401.5
540.32409668,1350.75
540.608703613,1397.85
540.893188477,1482.975
541.17767334,1502.025
541.462158203,1502.5
541.746643066,1445.925
542.031066895,1497.125
542.315429688,1543.425
542.59979248,1536.725
542.884216309,1514.15
543.168579102,1513.975
543.452941895,1519.475
543.737243652,1570.75
544.021484375,1612.8
544.305725098,1616.75
544.590026855,1579.775
544.874267578,1591.3
545.158447266,1660.15
545.442626953,1585.95
545.726806641,1473.875
546.010925293,1512.975
546.29510498,1536.575
546.579162598,1537.475
546.863220215,1574.05
547.147277832,1638.275
547.431335449,1715.425
547.715332031,1769.2
547.999328613,1892.85
548.283325195,1887.9
548.567260742,1745.425
548.851135254,1738.7
549.135070801,1694.025
549.419006348,1610.5
549.702819824,1701.0
549.986755371,1777.95
550.270507812,1721.675
550.554321289,1782.675
550.83807373,1791.925
551.121826172,1751.5
551.405517578,1770.3
551.689331055,1880.625
551.973022461,2102.875
552.256652832,2155.375
552.540344238,2075.975
552.823974609,2049.35
553.107543945,2034.275
553.391174316,2089.45
553.674743652,2140.35
553.958251953,2160.4
554.241821289,2167.825
554.525268555,2104.325
554.808776855,2092.825
555.092285156,2283.75
555.375671387,2372.975
555.659057617,2359.275
555.942504883,2402.3
556.225891113,2425.775
556.509216309,2401.675
556.792541504,2295.875
557.075866699,2380.225
557.359130859,2419.125
557.64239502,2415.425
557.92565918,2499.7
558.208862305,2482.125
558.49206543,2393.525
558.77532959,2417.15
559.058410645,2467.875
559.341552734,2468.95
559.624694824,2531.025
559.907775879,2602.4
560.190856934,2722.925
560.473937988,2712.575
560.756896973,2740.075
561.039978027,2789.925
561.322937012,2715.825
561.605895996,2729.75
561.88885498,2694.4
562.171813965,2691.95
562.454650879,2689.5
562.737548828,2729.0
563.020446777,2800.925
563.303283691,2830.1
563.58605957,2862.7
563.868896484,2872.35
564.151672363,2912.525
564.434387207,2955.35
564.717163086,2932.45
564.99987793,2970.65
565.282531738,3041.55
565.565185547,2966.475
565.847839355,3001.525
566.130432129,3106.375
566.413085938,3079.825
566.695678711,3091.45
566.978149414,3229.425
567.260681152,3369.55
567.543273926,3438.85
567.825744629,3351.675
568.108154297,3383.875
568.390686035,3526.075
568.673095703,3645.55
568.955505371,3672.5
569.237854004,3710.025
569.520202637,3984.4
569.802490234,4225.4
570.084838867,4192.875
570.367126465,4017.075
570.649414062,4052.35
570.93170166,4400.7
571.213928223,4471.625
571.496154785,4234.45
571.778381348,4466.375
572.06048584,4727.375
572.342590332,4258.325
572.624755859,3910.7
572.906860352,3980.725
573.188903809,4657.75
573.470947266,4928.525
573.752990723,4691.6
574.03503418,4807.35
574.317016602,5205.125
574.598937988,4975.775
574.88092041,4865.675
575.162841797,5069.975
575.444763184,4666.95
575.726623535,4395.6
576.008483887,4458.15
576.290344238,4871.5
576.572143555,5085.775
576.853881836,5158.55
577.135681152,5047.275
577.417419434,5117.95
577.699157715,6011.0
577.980895996,6177.625
578.262573242,5516.65
578.544128418,5010.375
578.825866699,4958.575
579.107421875,4634.9
579.388977051,4835.575
579.670593262,5246.525
579.952148438,5085.075
580.233642578,5211.85
580.515197754,5316.75
580.796691895,5009.625
581.078125,5193.875
581.359619141,6733.3
581.640991211,6855.175
581.922363281,5906.725
582.203796387,5986.575
582.485107422,5609.85
582.766418457,5202.425
583.047790527,5043.5
583.329040527,4917.875
583.610290527,4774.075
583.891540527,4906.65
584.172790527,5229.9
584.453918457,5260.15
584.735107422,5334.375
585.016235352,5773.5
585.297363281,5750.4
585.578552246,5552.2
585.859619141,5499.05
586.140625,5241.375
586.421630859,5110.225
586.702697754,5134.025
586.983642578,5386.15
587.264648438,5577.025
587.545654297,5507.65
587.826477051,5471.35
588.107421875,5276.75
588.388305664,5300.725
588.669189453,5390.875
588.950012207,5253.0
589.230834961,5167.075
589.511657715,5264.275
589.792358398,5352.0
590.073120117,5349.9
590.353881836,5313.625
590.63458252,5347.225
590.915283203,5310.675
591.195922852,5301.6
591.4765625,5365.75
591.757202148,5381.425
592.037780762,5382.9
592.31829834,5369.275
592.598937988,5602.575
592.879394531,5780.325
593.159912109,5699.725
593.440429688,5640.95
593.720825195,5617.975
594.001281738,5579.0
594.281677246,5497.325
594.562072754,5527.225
594.842407227,5648.675
595.122802734,5668.25
595.403137207,5667.5
595.683410645,5619.55
595.963623047,5612.85
596.243896484,5575.575
596.524169922,5583.45
596.804382324,5575.425
597.084533691,5629.825
597.364746094,5661.425
597.644836426,5686.575
597.924987793,5656.1
598.205078125,5641.8
598.485107422,5672.725
598.765197754,5769.25
599.045227051,5851.475
599.325195312,5744.6
599.605224609,5712.125
599.885192871,5735.8
600.165100098,5800.425
600.445007324,5747.725
600.724914551,5728.4
601.004760742,5764.725
601.284667969,5762.725
601.56451416,5738.025
601.844238281,5747.375
602.124084473,5765.8
602.403808594,5761.675
602.683532715,5796.85
602.963256836,5775.925
603.242919922,5831.05
603.522583008,5888.225
603.802246094,5846.4
604.081848145,5823.325
604.36138916,5778.625
604.641052246,5803.6
604.920532227,5775.75
605.200073242,5815.775
605.479614258,5839.125
605.759094238,5877.225
606.038574219,5873.625
606.317932129,5812.775
606.597412109,5803.3
606.87677002,5840.2
607.15612793,5857.35
607.435546875,5853.7
607.714782715,5854.125
607.99407959,5836.7
608.273376465,5815.675
608.552612305,5838.35
608.831848145,5848.125
609.111083984,5874.525
609.390258789,5851.475
609.669433594,5840.825
609.948608398,5899.825
610.227722168,5870.525
610.506713867,5819.6
610.785888672,5819.45
611.064880371,5822.775
611.34387207,5822.2
611.622924805,5843.725
611.901916504,5834.675
612.180847168,5794.2
612.459777832,5794.5
612.738647461,5779.825
613.01751709,5774.225
613.296447754,5694.625
613.575317383,5701.45
613.854064941,5629.475
614.132873535,5548.55
614.411621094,5498.325
614.690368652,5425.325
614.969177246,5354.125
615.247802734,5296.3
615.526489258,5284.075
615.805175781,5139.75
616.08380127,5048.1
616.362365723,4953.1
616.640991211,4878.275
616.919555664,4859.025
617.198059082,4956.2
617.4765625,5229.05
617.755126953,5389.725
618.033569336,5401.9
618.311950684,5417.55
618.590454102,5424.225
618.868774414,5385.4
619.147155762,5389.625
619.425598145,5363.925
619.703857422,5387.775
619.982177734,5386.15
620.260498047,5380.425
620.538757324,5357.575
620.816955566,5311.65
621.095214844,5267.625
621.373413086,5303.275
621.651550293,5349.6
621.929748535,5372.075
622.207824707,5346.4
622.485900879,5349.425
622.764038086,5354.075
623.042053223,5416.075
623.320007324,5430.45
623.598083496,5414.525
623.876037598,5400.25
624.153991699,5429.45
624.432006836,5445.3
624.709838867,5455.3
624.987731934,5435.4
625.265563965,5443.425
625.543395996,5451.95
625.821228027,5500.675
626.098999023,5486.275
626.376831055,5537.55
626.654541016,5538.1
626.932250977,5571.3
627.209960938,5637.0
627.487670898,5629.2
627.765319824,5664.35
628.04296875,5667.0
628.320495605,5694.125
628.598083496,5658.925
628.875671387,5696.95
629.153259277,5747.275
629.430725098,5789.275
629.708251953,5759.95
629.985656738,5780.025
630.263122559,5830.1
630.540588379,5829.225
630.817932129,5837.35
631.095275879,5897.25
631.372680664,5909.225
631.649963379,5979.2
631.927246094,6018.075
632.204589844,6057.95
632.481811523,6127.8
632.759033203,6175.325
633.036254883,6188.075
633.313415527,6280.9
633.590576172,6340.5
633.867736816,6436.45
634.144836426,6503.25
634.421875,6547.675
634.698913574,6611.525
634.976013184,6634.85
635.252990723,6692.75
635.529968262,6752.25
635.807006836,6791.5
636.08392334,6768.55
636.360839844,6693.175
636.637756348,6578.325
636.914611816,6565.425
637.191467285,6529.9
637.468261719,6607.45
637.745056152,6545.6
638.021789551,6567.825
638.298583984,6574.825
638.575317383,6615.8
638.851989746,6622.85
639.12878418,6601.775
639.405395508,6609.6
639.682006836,6613.125
639.958618164,6634.675
640.235229492,6606.25
640.511779785,6674.525
640.788330078,6637.875
641.064880371,6638.75
641.341308594,6624.075
641.617797852,6612.325
641.894226074,6578.1
642.170654297,6600.9
642.44708252,6602.025
642.723388672,6571.675
642.999755859,6571.575
643.276123047,6586.175
643.552429199,6547.975
643.828674316,6544.625
644.104919434,6547.625
644.381164551,6518.675
644.657348633,6525.4
644.933532715,6464.625
645.209716797,6479.95
645.485839844,6443.65
645.761901855,6464.825
646.038024902,6436.7
646.314086914,6468.85
646.590087891,6444.2
646.866149902,6479.3
647.142150879,6426.05
647.41809082,6412.9
647.694030762,6384.85
647.969970703,6371.6
648.245788574,6400.075
648.521728516,6370.0
648.797546387,6359.075
649.073303223,6386.725
649.349182129,6347.8
649.624938965,6343.2
649.900634766,6353.55
650.176391602,6329.95
650.452087402,6299.95
650.727783203,6300.625
651.003479004,6298.9
651.279052734,6297.525
651.554626465,6289.95
651.83026123,6290.7
652.105773926,6275.4
652.381286621,6236.8
652.656860352,6258.425
652.932312012,6249.5
653.207763672,6247.0
653.483215332,6291.6
653.758605957,6262.0
654.033935547,6243.9
654.309326172,6235.225
654.584716797,6254.7
654.859985352,6220.875
655.135253906,6288.05
655.410583496,6285.5
655.685791016,7229.575
655.9609375,11257.075
656.236206055,11000.05
656.511291504,7253.45
656.786437988,6377.525
657.061645508,6281.15
657.336669922,6238.875
657.611694336,6264.925
657.886779785,6291.15
658.161804199,6293.075
658.436828613,6232.3
658.711791992,6247.425
658.986755371,6260.1
659.261657715,6254.9
659.536621094,6261.325
659.811401367,6272.2
660.086303711,6272.75
660.36114502,6270.625
660.635864258,6262.0
660.910644531,6300.125
661.185424805,6284.575
661.460205078,6284.55
661.734863281,6282.5
662.009521484,6279.175
662.284179688,6264.7
662.558776855,6287.375
662.833435059,6317.65
663.108032227,6321.8
663.382568359,6287.575
663.657043457,6320.95
663.93157959,6336.3
664.206054688,6304.1
664.48046875,6334.175
664.755004883,6375.075
665.02935791,6366.275
665.303710938,6387.95
665.578125,6410.7
665.852416992,6379.55
666.126708984,6373.1
666.401062012,6367.65
666.675292969,6393.65
666.949462891,6392.325
667.223754883,6398.95
667.497924805,6434.0
667.772094727,6430.425
668.046264648,6382.55
668.3203125,6436.1
668.594421387,6434.025
668.868469238,6461.475
669.14251709,6446.15
669.416503906,6449.25
669.690551758,6439.55
669.964477539,6439.2
670.23840332,6439.575
670.512329102,6461.125
670.786254883,6402.075
671.060058594,6444.375
671.333984375,6462.425
671.607788086,6467.725
671.881530762,6447.425
672.155334473,6471.2
672.429077148,6483.05
672.702758789,6491.95
672.97644043,6463.475
673.25012207,6462.15
673.523742676,6427.55
673.797302246,6446.35
674.070922852,6489.05
674.344482422,6468.85
674.618041992,6453.1
674.891601562,6463.675
675.165100098,6475.85
675.438476562,6457.975
675.711975098,6467.825
675.985412598,6453.75
676.258789062,6422.375
676.532165527,6448.475
676.805480957,6439.675
677.078796387,6454.3
677.352111816,6447.65
677.625366211,6441.3
677.898620605,6444.35
678.171875,6490.875
678.445007324,6461.925
678.718200684,6465.225
678.991394043,6455.175
679.264404297,6451.15
679.537536621,6478.05
679.81060791,6484.575
680.083679199,6475.2
680.356689453,6480.45
680.629699707,6461.35
680.902648926,6421.275
681.175598145,6447.3
681.448547363,6476.275
681.721435547,6459.8
681.99420166,6451.2
682.267150879,6412.85
682.539916992,6471.15
682.812744141,6432.575
683.085510254,6420.375
683.358215332,6443.025
683.63092041,6423.275
683.903625488,6414.6
684.176330566,6400.975
684.448913574,6370.075
684.721557617,6317.125
684.99420166,6403.5
685.266662598,6393.975
685.539245605,6380.075
685.811767578,6414.55
686.084289551,6392.75
686.356689453,6380.05
686.629150391,6405.125
686.901550293,6437.225
687.17401123,6396.75
687.446350098,6437.625
687.718688965,6443.575
687.990966797,6454.1
688.263305664,6447.075
688.535522461,6415.55
688.807739258,6386.525
689.079956055,6422.125
689.352172852,6434.225
689.624328613,6427.85
689.896484375,6430.975
690.168518066,6437.2
690.440612793,6445.65
690.71270752,6446.725
690.984741211,6466.325
691.256713867,6454.8
691.528747559,6454.65
691.800720215,6449.3
692.072631836,6440.575
692.344543457,6465.175
692.616394043,6479.825
692.888244629,6470.375
693.160095215,6454.65
693.431945801,6492.95
693.703674316,6469.4
693.975463867,6459.45
694.247131348,6485.55
694.518859863,6464.175
694.790588379,6482.275
695.062255859,6474.7
695.33380127,6444.675
695.60546875,6467.675
695.87701416,6471.8
696.148498535,6446.075
696.42010498,6470.45
696.691589355,6477.2
696.96307373,6480.675
697.234558105,6523.9
697.50592041,6532.875
697.777282715,6523.225
698.048706055,6492.125
698.320068359,6525.025
698.591308594,6500.725
698.862670898,6508.95
699.133972168,6514.675
699.405151367,6495.975
699.676391602,6550.425
699.947570801,6522.8
700.21875,6514.95
700.489868164,6530.525
700.761047363,6518.975
701.032104492,6551.95
701.303100586,6497.8
701.57421875,6563.25
701.845214844,6522.3
702.116149902,6541.1
702.387207031,6516.275
702.65814209,6511.2
702.928955078,6533.95
703.199951172,6494.0
703.47076416,6503.825
703.741577148,6474.7
704.012451172,6522.775
704.28314209,6503.4
704.553955078,6495.9
704.824707031,6542.175
705.095397949,6557.95
705.366027832,6511.9
705.63671875,6507.775
705.907348633,6486.925
706.17791748,6481.775
706.448486328,6499.5
706.719055176,6504.275
706.989562988,6514.7
707.260131836,6521.025
707.530517578,6532.275
707.800964355,6538.15
708.071411133,6493.35
708.341796875,6524.425
708.612182617,6519.3
708.882446289,6479.7
709.152893066,6484.825
709.423156738,6479.925
709.693359375,6447.6
709.963623047,6495.825
710.233825684,6516.775
710.503967285,6467.05
710.774169922,6467.35
711.044311523,6457.45
711.31439209,6449.35
711.584533691,6475.8
711.854553223,6453.025
712.124572754,6473.125
712.39465332,6425.775
712.664611816,6463.3
712.934509277,6486.225
713.204467773,6457.475
713.474365234,6459.65
713.74420166,6410.6
714.014099121,6452.375
714.283874512,6453.45
714.553710938,6473.6
714.823486328,6450.75
715.093200684,6408.25
715.362915039,6438.925
715.632629395,6447.45
715.902282715,6419.15
716.171875,6424.75
716.441589355,6437.35
716.711181641,6388.225
716.980712891,6393.275
717.250244141,6380.8
717.519775391,6415.85
717.78918457,6430.975
718.058654785,6429.125
718.328125,6453.875
718.597473145,6433.625
718.866882324,6403.5
719.136230469,6421.85
719.405578613,6430.85
719.674865723,6465.475
719.944152832,6424.8
720.213439941,6404.15
720.48260498,6428.9
720.75177002,6429.975
721.020996094,6421.3
721.290100098,6449.075
721.559204102,6408.7
721.828308105,6415.75
722.097351074,6416.225
722.366455078,6406.4
722.635437012,6409.825
722.904418945,6379.225
723.173400879,6410.7
723.442321777,6412.975
723.711181641,6407.45
723.980102539,6418.125
724.248962402,6401.275
724.51776123,6374.45
724.786560059,6383.875
725.055358887,6421.225
725.324035645,6385.825
725.592834473,6419.525
725.86151123,6386.25
726.130187988,6400.95
726.398803711,6400.275
726.667419434,6402.475
726.935974121,6384.5
727.204528809,6361.275
727.473083496,6369.625
727.741638184,6348.6
728.010070801,6304.95
728.278564453,6310.35
728.546936035,6333.625
728.815368652,6258.6
729.08380127,6209.1
729.352111816,6201.7
729.620361328,6154.425
729.88873291,6180.125
730.156982422,6199.65
730.425231934,6225.95
730.693481445,6186.0
730.961669922,6246.75
731.229797363,6270.125
731.49798584,6291.2
731.766113281,6326.975
732.034118652,6378.675
732.302246094,6418.15
732.570251465,6429.925
732.838256836,6468.65
733.106262207,6545.1
733.374145508,6569.55
733.642089844,6576.8
733.909973145,6624.325
734.177856445,6672.825
734.445678711,6757.925
734.713562012,6814.5
734.981323242,6769.95
735.249084473,6799.675
735.516845703,6914.625
735.784545898,6971.075
736.052185059,6998.6
736.319885254,7070.325
736.587524414,7121.275
736.855102539,7171.95
737.122619629,7273.675
737.390197754,7288.85
737.657714844,7363.275
737.925170898,7395.9
738.192749023,7511.0
738.460144043,7546.55
738.727539062,7572.925
738.994995117,7653.1
739.262329102,7734.425
739.529663086,7813.55
739.79699707,7825.175
740.06427002,7899.225
740.331481934,7962.175
740.598754883,7999.925
740.865905762,8009.825
741.133056641,8120.9
741.40032959,8146.525
741.667358398,8217.675
741.934448242,8201.025
742.201599121,8235.5
742.468566895,8319.8
742.735534668,8355.2
743.002563477,8405.5
743.26953125,8391.075
743.536437988,8426.775
743.803405762,8544.925
744.0703125,8499.9
744.337097168,8586.875
744.604003906,8516.325
744.870727539,8565.3
745.137512207,8639.775
745.40423584,8608.725
745.670959473,8620.525
745.93762207,8652.8
746.204284668,8675.025
746.470947266,8702.55
746.737548828,8651.55
747.004089355,8696.675
747.270751953,8717.25
747.53717041,8766.65
747.803710938,8706.175
748.070251465,8701.775
748.336608887,8703.225
748.603027344,8660.075
748.869445801,8651.6
749.135803223,8707.375
749.402099609,8688.025
749.668457031,8692.575
749.934753418,8717.375
750.20098877,8667.9
750.467224121,8733.3
750.733459473,8709.5
750.999572754,8694.85
751.26574707,8613.15
751.531860352,8668.275
751.797912598,8630.925
752.064025879,8576.25
752.330078125,8596.025
752.596069336,8594.25
752.862060547,8546.45
753.127990723,8580.6
753.393920898,8546.5
753.659912109,8546.95
753.925720215,8596.225
754.19152832,8543.225
754.457397461,8504.3
754.723144531,8492.025
754.988952637,8467.65
755.254699707,8497.35
755.520385742,8508.725
755.786071777,8511.6
756.051696777,8469.975
756.317382812,8451.425
756.582946777,8389.075
756.848510742,8388.8
757.114074707,8355.5
757.379577637,8363.325
757.645080566,8433.925
757.910583496,8410.35
758.175964355,8341.9
758.441345215,8319.325
758.706848145,8200.5
758.972106934,8249.275
759.237426758,8308.1
759.502807617,8291.15
759.768005371,8304.075
760.03326416,8265.025
760.298522949,8239.05
760.563659668,8260.15
760.828857422,8231.125
761.093994141,8228.0
761.359130859,8178.9
761.624206543,8183.75
761.889282227,8174.975
762.15423584,8144.5
762.419250488,8125.725
762.684265137,8120.525
762.949157715,8106.625
763.214050293,8111.9
763.479003906,8116.825
763.743835449,8087.6
764.008666992,8075.175
764.2734375,8086.55
764.538208008,8126.9
764.802978516,8147.825
765.067687988,8110.725
765.332397461,8120.2
765.597045898,8059.45
765.861694336,8031.125
766.126342773,8031.65
766.390930176,8003.225
766.655395508,7972.3
766.920043945,7935.25
767.184509277,7958.2
767.448974609,7994.175
767.713439941,7934.775
767.977783203,7948.8
768.2421875,8010.525
768.506591797,7952.3
768.770874023,8027.825
769.03515625,7994.125
769.299499512,7970.55
769.563720703,7958.975
769.827941895,7933.575
770.092163086,7934.025
770.356323242,7913.55
770.620483398,7941.2
770.88458252,7989.925
771.148681641,7953.0
771.412719727,7955.075
771.676757812,7952.55
771.940734863,7890.0
772.204711914,7916.775
772.468688965,7876.275
772.73260498,7900.3
772.996459961,7920.625
773.260314941,7038.725
773.524169922,912.625
773.787963867,145.1
774.051696777,122.0
774.315551758,121.325
774.579223633,123.475
774.842895508,122.65
775.106567383,121.35
775.370239258,117.65
775.633789062,124.75
775.897399902,126.125
776.160949707,120.875
776.424499512,118.675
776.687988281,123.55
776.951477051,128.4
777.214904785,121.975
777.47833252,122.375
