191.299911499,102.6
191.603515625,105.55
191.907119751,97.925
192.210693359,106.05
192.514251709,99.575
192.817810059,105.725
193.121368408,104.425
193.42489624,105.5
193.728408813,98.0
194.031936646,97.375
194.33543396,93.45
194.638916016,108.15
194.94241333,97.425
195.245880127,96.85
195.549331665,96.275
195.852767944,101.625
196.156204224,188.15
196.459625244,186.625
196.763015747,185.7
197.066436768,191.2
197.369812012,185.475
197.673187256,189.95
197.9765625,182.325
198.279922485,186.7
198.583251953,178.7
198.886581421,187.85
199.18989563,192.175
199.493209839,189.55
199.79649353,182.025
200.09979248,196.625
200.403076172,188.625
200.706314087,189.1
201.009567261,185.55
201.312820435,187.3
201.616027832,179.9
201.919235229,176.65
202.222457886,182.725
202.525634766,187.3
202.828826904,177.45
203.132003784,177.05
203.435150146,177.475
203.738296509,179.35
204.041412354,175.05
204.344558716,181.45
204.647659302,184.325
204.950759888,184.275
205.253845215,182.05
205.556930542,178.975
205.859985352,180.975
206.163024902,181.8
206.466079712,182.825
206.769104004,192.25
207.072113037,183.525
207.375137329,185.925
207.678131104,181.075
207.981109619,184.225
208.284088135,179.35
208.587036133,186.65
208.889984131,187.075
209.19291687,187.45
209.495849609,190.45
209.798751831,186.625
210.101654053,188.975
210.404556274,190.3
210.707427979,189.45
211.010269165,192.775
211.31312561,194.225
211.615982056,197.025
211.918807983,199.25
212.221618652,195.3
212.524429321,189.15
212.827224731,201.45
213.130004883,196.0
213.432769775,202.175
213.735534668,196.375
214.038269043,201.05
214.341003418,199.575
214.643737793,206.1
214.946456909,204.525
215.249145508,209.575
215.551834106,210.5
215.854507446,213.2
216.157165527,213.75
216.45980835,217.3
216.762451172,220.075
217.065078735,222.55
217.36769104,221.775
217.670303345,222.1
217.972885132,228.725
218.275466919,230.175
218.578048706,225.775
218.880599976,238.775
219.183120728,244.625
219.485656738,253.5
219.788192749,267.95
220.090682983,290.425
220.393188477,326.675
220.695663452,375.35
220.998138428,411.8
221.300582886,479.775
221.603042603,530.725
221.905487061,610.2
222.207901001,714.1
222.510299683,807.175
222.812728882,925.925
223.115097046,1045.9
223.41746521,1169.675
223.719848633,1310.4
224.022171021,1443.525
224.324508667,1587.725
224.626846313,1754.625
224.929168701,1900.35
225.231460571,2070.875
225.533737183,2220.35
225.836013794,2385.95
226.138290405,2523.325
226.440536499,2693.575
226.742767334,2817.9
227.044998169,2936.575
227.347213745,3110.55
227.649429321,3239.175
227.951629639,3332.65
228.253799438,3435.425
228.555953979,3528.6
228.858123779,3620.325
229.160263062,3739.65
229.462371826,3801.825
229.764511108,3867.85
230.066619873,3942.65
230.36869812,4015.525
230.670776367,4069.675
230.972854614,4159.4
231.274902344,4226.675
231.576950073,4300.925
231.878967285,4355.8
232.180999756,4433.575
232.48298645,4496.3
232.784988403,4576.2
233.086975098,4605.675
233.388946533,4647.25
233.69090271,4693.25
233.992858887,4760.875
234.294769287,4734.125
234.596694946,4767.925
234.898605347,4796.675
235.200500488,4757.975
235.502380371,4752.925
235.804244995,4725.925
236.106109619,4666.475
236.407958984,4657.475
236.709777832,4627.5
237.011581421,4551.9
237.313400269,4484.375
237.615203857,4411.2
237.916976929,4364.9
238.21875,4266.4
238.520507812,4209.7
238.822250366,4114.85
239.12399292,4024.675
239.425704956,3969.75
239.727401733,3847.1
240.02911377,3764.0
240.330780029,3667.55
240.632446289,3569.5
240.93409729,3477.025
241.23576355,3373.075
241.537384033,3282.0
241.839004517,3169.2
242.140594482,3075.05
242.442199707,2981.2
242.743774414,2883.25
243.045333862,2799.4
243.346923828,2690.775
243.648452759,2596.975
243.949966431,2483.0
244.251495361,2413.85
244.552993774,2317.6
244.854492188,2187.625
245.155975342,2108.2
245.457443237,2016.7
245.758880615,1911.325
246.060333252,1823.0
246.36177063,1727.7
246.66317749,1654.325
246.964569092,1571.7
247.265945435,1497.6
247.567337036,1431.975
247.86869812,1377.425
248.170059204,1299.7
248.471389771,1242.125
248.772705078,1195.175
249.074035645,1152.65
249.375335693,1100.45
249.676620483,1061.75
249.977890015,1020.525
250.279159546,993.925
250.58039856,957.4
250.881637573,924.725
251.182876587,899.275
251.484069824,877.125
251.785263062,849.0
252.086456299,844.95
252.387619019,814.95
252.688781738,780.85
252.989929199,771.55
253.291061401,756.0
253.592178345,747.25
253.893280029,740.45
254.194366455,721.85
254.49546814,710.675
254.796524048,687.95
255.097579956,690.55
255.398620605,671.35
255.699645996,669.45
256.000640869,645.875
256.30166626,647.975
256.602661133,640.625
256.903656006,637.725
257.204589844,644.45
257.505523682,626.55
257.80645752,632.6
258.107391357,622.625
258.408294678,623.875
258.709228516,621.175
259.010070801,619.525
259.310943604,616.25
259.611846924,611.8
259.912658691,619.35
260.213500977,615.25
260.514343262,615.2
260.815124512,620.1
261.115936279,623.025
261.416717529,628.35
261.717468262,632.95
262.018218994,641.125
262.318969727,653.7
262.619689941,663.575
262.920410156,686.125
263.221130371,695.025
263.521789551,719.8
263.822479248,736.825
264.123138428,760.525
264.42376709,791.275
264.72442627,805.825
265.025054932,820.775
265.325622559,861.875
265.626251221,875.8
265.926818848,904.475
266.227386475,918.575
266.527954102,941.825
266.828460693,994.75
267.12902832,999.2
267.429534912,1025.65
267.730010986,1063.575
268.030517578,1082.7
268.330993652,1124.0
268.631439209,1147.2
268.931915283,1195.55
269.232299805,1229.525
269.532745361,1277.2
269.8331604,1305.925
270.133544922,1342.375
270.433929443,1403.1
270.734313965,1456.9
271.034637451,1504.175
271.334991455,1566.95
271.635314941,1641.15
271.935638428,1690.55
272.235931396,1772.325
272.536254883,1840.35
272.836486816,1933.8
273.136749268,2011.375
273.437011719,2121.525
273.737213135,2231.025
274.037445068,2336.375
274.337677002,2454.575
274.6378479,2554.85
274.938049316,2703.4
275.238220215,2810.925
275.538360596,2969.2
275.838500977,3076.725
276.138641357,3240.45
276.438751221,3362.475
276.738830566,3516.3
277.03894043,3637.9
277.338989258,3807.175
277.639038086,3956.5
277.939056396,4097.2
278.239105225,4235.5
278.539093018,4394.475
278.839141846,4522.475
279.139129639,4671.35
279.439086914,4821.45
279.739044189,4958.65
280.039001465,5116.225
280.338928223,5248.325
280.63885498,5381.9
280.938781738,5517.65
281.238647461,5667.425
281.538513184,5758.575
281.838409424,5885.4
282.138244629,6039.95
282.438079834,6111.625
282.737945557,6255.875
283.037719727,6346.325
283.337524414,6478.875
283.637298584,6557.4
283.937072754,6660.1
284.236816406,6744.3
284.536560059,6827.05
284.836303711,6901.975
285.136016846,7030.025
285.43572998,7100.175
285.735412598,7171.2
286.035064697,7257.575
286.334747314,7338.125
286.634368896,7412.025
286.933990479,7424.075
287.233642578,7433.2
287.533203125,7471.025
287.832824707,7464.0
288.132385254,7436.175
288.431945801,7356.65
288.731506348,7288.525
289.031036377,7130.55
289.330566406,7093.975
289.630065918,7119.525
289.92956543,7099.15
290.229034424,7248.875
290.528503418,7430.175
290.827941895,7628.925
291.127380371,7779.4
291.42678833,7934.875
291.726226807,8111.425
292.025604248,8141.025
292.324981689,8243.475
292.624359131,8271.9
292.923736572,8303.1
293.223052979,8356.625
293.522369385,8365.1
293.821685791,8329.475
294.12097168,8338.6
294.420257568,8305.275
294.719543457,8345.525
295.018768311,8313.675
295.318023682,8277.925
295.617248535,8213.525
295.916442871,8183.525
296.215667725,8113.7
296.514862061,8001.1
296.813995361,7793.75
297.11315918,7564.55
297.412322998,7462.225
297.711425781,7412.725
298.010559082,7604.65
298.309631348,7834.55
298.608734131,8036.575
298.907806396,8271.05
299.206848145,8413.775
299.505889893,8495.975
299.804901123,8623.7
300.103912354,8702.2
300.402954102,8816.925
300.701904297,8841.625
301.00088501,8958.025
301.299835205,9014.85
301.5987854,9050.175
301.897735596,9150.75
302.196624756,9204.9
302.495513916,9284.65
302.794403076,9317.225
303.093292236,9389.475
303.392120361,9478.275
303.690979004,9553.35
303.989837646,9586.875
304.288604736,9644.275
304.587402344,9688.05
304.886199951,9716.225
305.184967041,9754.4
305.483734131,9800.4
305.782501221,9848.125
306.081176758,9875.1
306.37991333,9891.85
306.678619385,9909.925
306.977294922,9925.55
307.275970459,9951.675
307.574645996,9974.175
307.873260498,9949.975
308.171875,9991.7
308.470489502,9976.125
308.769104004,9888.3
309.067687988,9901.225
309.366241455,9899.425
309.664794922,9877.425
309.963348389,9880.925
310.261871338,9864.525
310.560394287,9874.65
310.858856201,9932.4
311.157348633,9966.25
311.455810547,9913.7
311.754272461,9977.275
312.052703857,10070.7
312.351135254,10076.3
312.649536133,10067.75
312.947937012,10051.0
313.246307373,10086.05
313.544647217,10117.2
313.843017578,10025.825
314.141387939,10021.45
314.439697266,10031.375
314.738006592,9950.225
315.036315918,9876.25
315.334564209,9821.825
315.6328125,9743.775
315.931091309,9694.25
316.229309082,9559.825
316.527526855,9415.25
316.825744629,9383.2
317.123901367,9248.975
317.422088623,9236.925
317.720245361,9210.475
318.0184021,9211.25
318.316497803,9313.075
318.614654541,9313.1
318.912750244,9438.8
319.21081543,9403.725
319.50894165,9445.15
319.806945801,9416.9
320.104980469,9433.1
320.403045654,9436.675
320.701049805,9407.95
320.999023438,9374.675
321.297027588,9345.9
321.595001221,9332.2
321.892913818,9284.85
322.190887451,9196.95
322.488830566,9151.2
322.786712646,9103.45
323.084625244,9006.825
323.382507324,8999.9
323.680358887,8912.1
323.978210449,8805.125
324.276062012,8761.975
324.573852539,8690.275
324.871643066,8627.65
325.169464111,8565.225
325.467224121,8476.7
325.764984131,8437.65
326.062744141,8363.75
326.360473633,8258.3
326.658203125,8200.825
326.955871582,8106.475
327.253570557,8048.75
327.551239014,7995.725
327.848907471,7921.375
328.146514893,7859.8
328.444152832,7772.925
328.741790771,7691.0
329.039367676,7638.4
329.336914062,7560.05
329.634521484,7495.475
329.932067871,7471.65
330.229553223,7378.55
330.527160645,7314.05
330.824615479,7272.325
331.12210083,7167.075
331.419586182,7043.175
331.717041016,6991.45
332.014465332,6888.075
332.311920166,6876.65
332.609313965,6787.075
332.906707764,6774.35
333.204101562,6765.025
333.501495361,6784.425
333.798828125,6842.25
334.096160889,6875.95
334.39352417,6951.55
334.690795898,6996.5
334.988098145,7034.5
335.285400391,7103.975
335.582641602,7104.2
335.879882812,7162.975
336.177124023,7166.225
336.474334717,7230.7
336.77154541,7240.3
337.068725586,7256.825
337.365905762,7253.975
337.66305542,7267.425
337.960205078,7318.475
338.257324219,7314.475
338.554443359,7316.95
338.8515625,7337.275
339.148590088,7325.075
339.445648193,7352.825
339.742736816,7317.125
340.039764404,7305.35
340.336761475,7256.25
340.63381958,7214.475
340.930755615,7158.525
341.227722168,7079.35
341.524688721,6993.8
341.821624756,6939.875
342.118560791,6961.3
342.415496826,7049.625
342.712402344,7205.7
343.009246826,7356.6
343.306121826,7489.125
343.602966309,7545.6
343.899810791,7641.175
344.196624756,7727.725
344.493438721,7759.3
344.79019165,7795.35
345.086975098,7870.525
345.383758545,7909.65
345.680480957,7874.5
345.977203369,7884.975
346.273956299,7965.1
346.570617676,7925.375
346.86730957,7953.075
347.163970947,7913.1
347.460601807,7942.225
347.757232666,7960.75
348.053894043,7896.875
348.350463867,7850.45
348.647064209,7830.8
348.943634033,7812.675
349.24017334,7821.075
349.536712646,7782.25
349.833251953,7755.05
350.129760742,7723.75
350.426208496,7728.425
350.722747803,7654.3
351.019195557,7651.2
351.315612793,7593.125
351.612060547,7560.85
351.908508301,7487.25
352.204864502,7420.55
352.501281738,7356.35
352.797637939,7275.1
353.093963623,7174.025
353.390319824,7092.7
353.686645508,6999.85
353.982940674,6914.75
354.27923584,6859.775
354.575531006,6782.575
354.871765137,6770.075
355.167999268,6752.9
355.464233398,6756.0
355.760437012,6736.625
356.056640625,6746.1
356.352813721,6728.225
356.648956299,6712.025
356.945129395,6730.575
357.241271973,6697.95
357.537384033,6726.55
357.833496094,6628.6
358.129577637,6634.15
358.425628662,6589.55
358.721679688,6546.425
359.017730713,6518.1
359.313720703,6419.1
359.609710693,6410.775
359.905761719,6335.05
360.201721191,6268.6
360.497650146,6195.725
360.793609619,6151.275
361.089538574,6075.025
361.385437012,5977.025
361.681365967,5931.975
361.977233887,5863.825
362.273071289,5773.8
362.568908691,5641.25
362.864746094,5524.875
363.160552979,5384.9
363.456359863,5165.425
363.752166748,5030.475
364.047912598,4940.575
364.343658447,4877.275
364.639434814,4917.1
364.935119629,4929.25
365.230834961,4985.425
365.526550293,5015.75
365.822174072,5000.2
366.117858887,5005.35
366.413482666,5039.55
366.709075928,5038.75
367.004730225,4946.4
367.300292969,4931.425
367.595855713,4956.525
367.891448975,4835.1
368.186981201,4721.25
368.482513428,4678.9
368.778015137,4640.675
369.073547363,4597.275
369.36895752,4590.0
369.664428711,4487.4
369.95993042,4354.775
370.255310059,4326.1
370.550720215,4276.025
370.846160889,4223.4
371.14151001,4167.475
371.436859131,4140.025
371.73223877,4117.05
372.027557373,4062.95
372.322875977,3988.65
372.618164062,3972.925
372.913482666,3913.4
373.208709717,3888.95
373.503967285,3800.75
373.799194336,3771.725
374.094421387,3764.575
374.389648438,3726.25
374.684844971,3703.225
374.979980469,3727.225
375.275146484,3724.425
375.570281982,3743.575
375.865386963,3735.3
376.160522461,3681.975
376.455596924,3684.55
376.750640869,3754.9
377.045715332,3748.225
377.340759277,3763.425
377.635772705,3805.325
377.93081665,3853.3
378.225769043,3903.7
378.520751953,3935.675
378.815734863,3903.325
379.110656738,4030.475
379.405548096,4176.4
379.700500488,4046.25
379.995391846,3807.325
380.290252686,3850.425
380.585083008,3945.075
380.879974365,3973.4
381.17477417,3863.0
381.469543457,3834.75
381.764404297,3799.275
382.059143066,3834.55
382.353912354,3912.675
382.648651123,3966.95
382.943389893,3934.425
383.238067627,3789.7
383.532775879,3780.95
383.827484131,3718.075
384.12210083,3707.275
384.416778564,3656.075
384.711425781,3576.875
385.006011963,3590.65
385.300628662,3566.775
385.595184326,3628.175
385.88973999,3720.475
386.184295654,3793.325
386.478820801,3840.65
386.77331543,3936.225
387.067840576,4013.475
387.362335205,4096.375
387.656768799,4140.775
387.951202393,4176.775
388.245635986,4233.625
388.540039062,4282.2
388.834472656,4344.325
389.128875732,4242.475
389.423187256,4049.675
389.717559814,3982.425
390.011871338,4091.0
390.306182861,4098.85
390.600463867,4107.875
390.894775391,4182.425
391.189025879,4202.9
391.48324585,4182.025
391.777526855,4238.05
392.071685791,4419.5
392.365875244,4467.925
392.660064697,4532.1
392.95425415,4824.675
393.248382568,4794.15
393.542510986,4388.2
393.836608887,4243.725
394.130706787,4233.65
394.424804688,4191.35
394.71887207,4311.25
395.012878418,4282.825
395.306915283,4198.15
395.600921631,4138.65
395.894927979,4105.175
396.188903809,4156.55
396.482879639,4147.725
396.776794434,4346.675
397.070739746,4312.2
397.364654541,4308.225
397.658538818,4637.3
397.952423096,4682.85
398.246307373,4644.425
398.540100098,5080.45
398.833953857,4980.1
399.127746582,4575.1
399.421508789,4596.975
399.715301514,4537.925
400.009063721,4458.0
400.30279541,4338.75
400.596496582,4268.55
400.890258789,4395.9
401.183929443,4488.325
401.47756958,4391.875
401.771240234,4192.45
402.064880371,4203.45
402.35848999,4238.65
402.652130127,4166.45
402.945678711,4234.925
403.239257812,4187.2
403.532775879,4138.4
403.82635498,4193.7
404.119842529,4116.775
404.413360596,4125.05
404.706848145,4167.1
405.000274658,4100.15
405.293762207,4182.4
405.587188721,4234.025
405.880584717,4099.275
406.17401123,3931.525
406.467407227,3767.0
406.760742188,3787.725
407.054107666,3823.225
407.347442627,3759.15
407.640716553,3753.775
407.934051514,3809.625
408.227325439,3874.25
408.520568848,4096.525
408.813842773,4138.225
409.107086182,3975.75
409.400238037,3958.325
409.693450928,3872.4
409.986633301,3980.5
410.279754639,3926.725
410.572875977,3665.175
410.86605835,3595.85
411.159118652,3622.25
411.452209473,3666.625
411.745330811,3517.75
412.038360596,3463.425
412.331390381,3493.925
412.624420166,3536.425
412.917388916,3467.075
413.210388184,3297.25
413.503387451,3290.85
413.796295166,3193.25
414.089233398,3037.25
414.382141113,2979.1
414.675048828,2956.5
414.967926025,3007.25
415.260803223,2962.95
415.55368042,2992.45
415.846466064,2945.3
416.139282227,3037.875
416.432098389,3139.55
416.724853516,3133.05
417.017608643,3110.375
417.31036377,3102.3
417.603088379,3232.725
417.895782471,3205.9
418.188476562,3195.55
418.481140137,3251.975
418.773803711,3307.95
419.066436768,3271.125
419.359039307,3373.35
419.651641846,3380.225
419.944244385,3374.325
420.236816406,3340.075
420.529327393,3527.7
420.821899414,3622.55
421.114379883,3551.45
421.406860352,3809.85
421.699371338,4015.55
421.991821289,3971.05
422.284240723,3797.9
422.576721191,3661.725
422.869110107,3570.25
423.161468506,3523.6
423.453857422,3555.05
423.74621582,3459.8
424.038543701,3318.775
424.330871582,3311.975
424.623168945,3244.4
424.915435791,3383.95
425.207702637,3353.3
425.499969482,3293.525
425.792205811,3248.125
426.084411621,3011.275
426.376617432,3091.5
426.668762207,3168.825
426.9609375,3050.925
427.253082275,3155.775
427.545196533,3576.775
427.837310791,3314.55
428.129425049,3031.3
428.421447754,3250.65
428.713531494,3247.1
429.005554199,3247.175
429.297576904,3256.65
429.589599609,3683.9
429.881561279,3990.675
430.173522949,3784.7
430.465484619,3741.175
430.757415771,3820.375
431.049316406,3599.65
431.341186523,3368.725
431.633117676,3285.775
431.924957275,2992.225
432.21673584,2887.675
432.508636475,3038.825
432.800415039,3053.275
433.092163086,2942.95
433.383972168,2920.5
433.675689697,3639.925
433.967437744,4112.65
434.259155273,3188.475
434.550872803,2898.125
434.842498779,2939.125
435.134185791,3057.0
435.425842285,3079.575
435.717437744,3003.95
436.009063721,2811.8
436.30065918,2948.55
436.592224121,3309.4
436.883758545,3107.875
437.175323486,2855.75
437.466827393,2829.4
437.758331299,2838.35
438.049804688,2875.25
438.341247559,2949.975
438.63269043,3030.1
438.924163818,3002.3
439.215515137,2973.55
439.50692749,2860.575
439.798309326,2881.525
440.089660645,2888.55
440.380981445,2799.6
440.672332764,2800.125
440.963623047,3070.75
441.254882812,3526.275
441.546173096,3720.475
441.837402344,3479.1
442.128631592,3272.725
442.41986084,3265.55
442.711029053,3127.775
443.002197266,3222.35
443.293365479,3394.025
443.584503174,3527.4
443.875610352,3515.85
444.166717529,3227.425
444.457794189,3296.5
444.748840332,3287.275
445.039916992,3227.8
445.330932617,3326.2
445.621948242,3179.025
445.912963867,2973.825
446.203918457,3214.625
446.494812012,3456.95
446.785827637,3238.325
447.076721191,3066.9
447.367584229,3049.5
447.658447266,3026.725
447.949371338,3077.2
448.24017334,2957.7
448.530975342,2876.2
448.821838379,3053.475
449.112579346,3136.525
449.40335083,3065.875
449.694152832,3097.875
449.984863281,3112.375
450.27557373,3041.2
450.56628418,3101.9
450.856933594,3124.5
451.147583008,2955.925
451.438262939,2858.075
451.728881836,3043.55
452.019470215,3137.35
452.310089111,2952.025
452.600646973,2982.525
452.891174316,3032.575
453.181732178,2856.45
453.472229004,2720.375
453.762695312,2840.0
454.053222656,2863.5
454.343658447,2730.45
454.634063721,2670.55
454.924530029,2854.525
455.214935303,3002.275
455.505279541,3061.375
455.795715332,2920.975
456.086029053,2727.25
456.376312256,2707.4
456.666687012,2746.025
456.956939697,2826.575
457.247192383,2857.025
457.537445068,2929.975
457.827728271,3101.575
458.117919922,3044.65
458.408081055,2962.875
458.698303223,3148.15
458.988433838,3080.575
459.278564453,2901.675
459.568725586,3191.825
459.858825684,3305.15
460.148864746,2992.075
460.438995361,2952.15
460.729034424,3003.825
461.019042969,3020.9
461.309082031,3225.725
461.599060059,3116.425
461.889007568,2631.025
462.179016113,2446.1
462.468933105,2694.825
462.75881958,2803.325
463.048736572,2540.95
463.338592529,2817.325
463.628448486,3178.175
463.918365479,2880.25
464.2081604,3057.4
464.497924805,3028.775
464.787780762,3148.8
465.077514648,3477.075
465.367218018,3068.175
465.657012939,3279.5
465.946685791,3718.375
466.236358643,3289.975
466.526092529,2753.55
466.815734863,2751.175
467.105316162,2666.975
467.394927979,2698.325
467.684570312,2543.675
467.974121094,2641.0
468.263671875,2763.125
468.553222656,2536.325
468.842773438,2421.05
469.132232666,2315.55
469.42175293,2349.05
469.711212158,2319.35
470.000640869,2181.3
470.290100098,2241.75
470.579498291,2295.575
470.868835449,2291.4
471.158294678,2251.5
471.447601318,2230.225
471.736907959,2301.65
472.026275635,2379.1
472.315551758,2370.9
472.604797363,2356.15
472.894104004,2504.55
473.183319092,2615.35
473.47253418,2596.25
473.761779785,2593.075
474.05090332,2529.5
474.340087891,2475.675
474.629241943,2398.05
474.918365479,2587.0
475.207427979,2877.7
475.496551514,2898.775
475.785614014,2621.625
476.074645996,2406.95
476.363708496,2514.7
476.652679443,2658.1
476.941650391,2466.175
477.230682373,2297.2
477.519622803,2316.85
477.808502197,2480.25
478.097412109,2762.95
478.386352539,2716.85
478.675201416,2418.025
478.964050293,2329.0
479.25289917,2507.9
479.541717529,2589.5
479.830474854,2415.8
480.11932373,2791.175
480.408050537,2982.4
480.696777344,2567.375
480.985534668,2432.725
481.274200439,2532.4
481.562866211,2815.425
481.851593018,2840.425
482.140197754,2762.625
482.428833008,2600.1
482.717468262,2384.325
483.006011963,2409.075
483.294586182,2548.125
483.5831604,2588.2
483.871673584,2447.55
484.16015625,2607.475
484.448699951,2863.25
484.7371521,2895.0
485.02557373,2902.375
485.314025879,2617.5
485.602416992,4080.0
485.890777588,14361.925
486.179199219,12879.35
486.467559814,3472.375
486.755859375,2521.85
487.044219971,2916.025
487.332519531,3148.25
487.620758057,2686.3
487.908966064,2415.25
488.197265625,2197.65
488.485473633,2084.925
488.773651123,2221.025
489.061859131,2218.35
489.350006104,2173.7
489.638122559,2103.925
489.926300049,2133.725
490.214355469,2081.825
490.502441406,2012.05
490.790527344,1941.35
491.078552246,2161.3
491.366546631,2156.05
491.654602051,1898.2
491.942565918,1991.2
492.230499268,2044.55
492.518493652,2001.9
492.806396484,2039.825
493.094268799,1949.425
493.382202148,1992.475
493.670074463,2126.725
493.957885742,1953.2
494.245727539,1944.625
494.533508301,2140.15
494.821289062,2008.725
495.109100342,1839.975
495.396850586,1796.05
495.684539795,1743.725
495.972290039,1976.35
496.25994873,2364.275
496.547607422,2375.825
496.835296631,2172.225
497.122894287,1807.825
497.410522461,1720.275
497.6980896,1730.45
497.985687256,1697.25
498.273223877,1817.35
498.560760498,1888.7
498.848266602,1915.85
499.135772705,1894.025
499.423217773,1927.075
499.710693359,2050.675
499.998138428,1996.1
500.285522461,1802.725
500.572937012,1715.15
500.860290527,1776.425
501.147644043,1905.075
501.434997559,2156.65
501.722290039,1999.75
502.00958252,1742.05
502.296875,2040.075
502.584106445,2025.825
502.871337891,1827.65
503.158599854,1912.825
503.445770264,2007.4
503.732910156,1966.8
504.020141602,1762.175
504.307220459,1744.425
504.594329834,1771.275
504.881469727,1708.6
505.168518066,1795.35
505.455535889,1876.075
505.742614746,1736.425
506.029632568,1648.875
506.316589355,1881.875
506.603637695,1974.95
506.890563965,1757.375
507.177459717,1565.825
507.464385986,1466.15
507.751312256,1741.5
508.038146973,1834.825
508.325012207,1669.575
508.611877441,1738.325
508.898681641,1750.025
509.185424805,1568.25
509.472259521,1519.95
509.759002686,1624.625
510.045715332,1652.65
510.332458496,1600.9
510.619140625,1668.125
510.905761719,1563.075
511.192504883,1550.025
511.479095459,1607.525
511.765686035,1553.0
512.052307129,1461.575
512.338928223,1393.575
512.625427246,1457.55
512.91204834,1526.225
513.198486328,1507.9
513.484985352,1470.0
513.77142334,1375.95
514.057922363,1437.475
514.344299316,1424.4
514.63079834,1389.275
514.917175293,1366.025
515.203552246,1264.8
515.489868164,1230.325
515.776245117,1377.375
516.0625,1430.85
516.348815918,1319.65
516.635070801,1364.05
516.921325684,1428.7
517.207580566,1355.525
517.493774414,1252.375
517.779968262,1256.35
518.066101074,1304.075
518.352294922,1242.8
518.638366699,1247.75
518.924499512,1344.35
519.210632324,1430.5
519.496643066,1392.475
519.782714844,1275.0
520.068786621,1232.775
520.354736328,1193.125
520.640686035,1145.65
520.926757812,1204.275
521.212646484,1278.25
521.498535156,1303.4
521.784484863,1236.1
522.0703125,1154.3
522.356262207,1178.05
522.642089844,1262.475
522.927856445,1259.225
523.213684082,1244.75
523.499511719,1240.325
523.78527832,1286.225
524.070983887,1346.5
524.356750488,1323.4
524.64239502,1285.875
524.928039551,1268.6
525.213806152,1286.375
525.499389648,1265.75
525.784973145,1296.525
526.070617676,1350.05
526.356140137,1324.525
526.641723633,1321.85
526.927307129,1395.85
527.212768555,1396.5
527.498291016,1377.725
527.783752441,1374.9
528.069213867,1362.175
528.354675293,1375.45
528.640014648,1570.55
528.925476074,1649.475
529.21081543,1568.075
529.496154785,1530.8
529.781555176,1499.55
530.066833496,1529.05
530.352050781,1535.75
530.637390137,1518.325
530.922607422,1524.95
531.207824707,1521.65
531.493041992,1502.975
531.778198242,1579.475
532.063354492,1564.675
532.348571777,1504.775
532.633666992,1509.475
532.918762207,1612.575
533.203857422,1708.55
533.488891602,1741.375
533.773925781,1680.875
534.059020996,1648.5
534.343933105,1680.925
534.628967285,1653.325
534.91394043,1676.1
535.198852539,1692.9
535.483703613,1651.325
535.768676758,1587.2
536.053527832,1590.475
536.338317871,1549.675
536.62322998,1467.0
536.90802002,1442.625
537.192810059,1476.6
537.477539062,1554.85
537.762329102,1614.7
538.047058105,1665.675
538.331726074,1695.175
538.616455078,1684.65
538.901123047,1654.55
539.18572998,1714.25
539.470397949,1712.975
539.755004883,1691.05
540.039550781,1657.2
540.32409668,1601.95
540.608703613,1647.5
540.893188477,1761.75
541.17767334,1774.15
541.462158203,1776.075
541.746643066,1723.4
542.031066895,1777.85
542.315429688,1817.325
542.59979248,1815.45
542.884216309,1795.55
543.168579102,1795.1
543.452941895,1793.675
543.737243652,1866.35
544.021484375,1915.925
544.305725098,1908.225
544.590026855,1881.975
544.874267578,1897.05
545.158447266,1966.825
545.442626953,1869.325
545.726806641,1753.175
546.010925293,1785.55
546.29510498,1821.85
546.579162598,1817.525
546.863220215,1855.65
547.147277832,1946.65
547.431335449,2033.55
547.715332031,2114.725
547.999328613,2236.1
548.283325195,2251.95
548.567260742,2077.0
548.851135254,2057.05
549.135070801,2019.1
549.419006348,1893.925
549.702819824,2026.175
549.986755371,2104.05
550.270507812,2046.975
550.554321289,2117.6
550.83807373,2110.075
551.121826172,2070.625
551.405517578,2084.5
551.689331055,2225.0
551.973022461,2498.475
552.256652832,2566.875
552.540344238,2459.675
552.823974609,2415.95
553.107543945,2413.85
553.391174316,2472.35
553.674743652,2528.725
553.958251953,2541.075
554.241821289,2539.35
554.525268555,2488.7
554.808776855,2473.375
555.092285156,2708.3
555.375671387,2801.75
555.659057617,2796.925
555.942504883,2838.075
556.225891113,2880.7
556.509216309,2808.75
556.792541504,2719.875
557.075866699,2809.125
557.359130859,2859.3
557.64239502,2863.8
557.92565918,2939.175
558.208862305,2920.95
558.49206543,2840.125
558.77532959,2872.375
559.058410645,2924.225
559.341552734,2884.375
559.624694824,2953.575
559.907775879,3051.525
560.190856934,3204.625
560.473937988,3182.05
560.756896973,3238.375
561.039978027,3281.4
561.322937012,3204.55
561.605895996,3204.1
561.88885498,3176.85
562.171813965,3182.525
562.454650879,3156.45
562.737548828,3189.875
563.020446777,3282.75
563.303283691,3298.425
563.58605957,3354.75
563.868896484,3359.575
564.151672363,3426.2
564.434387207,3479.0
564.717163086,3417.925
564.99987793,3471.8
565.282531738,3543.225
565.565185547,3473.25
565.847839355,3482.4
566.130432129,3626.55
566.413085938,3597.75
566.695678711,3614.125
566.978149414,3736.85
567.260681152,3923.475
567.543273926,4009.3
567.825744629,3893.725
568.108154297,3943.6
568.390686035,4089.375
568.673095703,4224.85
568.955505371,4277.325
569.237854004,4335.375
569.520202637,4644.725
569.802490234,4902.425
570.084838867,4844.475
570.367126465,4657.225
570.649414062,4651.05
570.93170166,5103.95
571.213928223,5186.0
571.496154785,4913.075
571.778381348,5157.525
572.06048584,5471.85
572.342590332,4940.525
572.624755859,4532.7
572.906860352,4587.775
573.188903809,5377.8
573.470947266,5671.075
573.752990723,5387.125
574.03503418,5520.625
574.317016602,5968.425
574.598937988,5707.025
574.88092041,5576.975
575.162841797,5788.425
575.444763184,5347.9
575.726623535,5048.725
576.008483887,5085.6
576.290344238,5561.45
576.572143555,5807.75
576.853881836,5897.825
577.135681152,5772.125
577.417419434,5846.525
577.699157715,6844.025
577.980895996,7043.725
578.262573242,6302.05
578.544128418,5721.3
578.825866699,5651.875
579.107421875,5266.325
579.388977051,5506.875
579.670593262,5966.375
579.952148438,5766.65
580.233642578,5904.325
580.515197754,5997.9
580.796691895,5658.55
581.078125,5871.05
581.359619141,7617.95
581.640991211,7748.175
581.922363281,6672.45
582.203796387,6755.025
582.485107422,6298.65
582.766418457,5831.275
583.047790527,5658.675
583.329040527,5528.725
583.610290527,5363.375
583.891540527,5505.5
584.172790527,5881.15
584.453918457,5894.175
584.735107422,5962.125
585.016235352,6489.8
585.297363281,6442.575
585.578552246,6217.375
585.859619141,6147.0
586.140625,5862.775
586.421630859,5733.8
586.702697754,5768.275
586.983642578,6019.15
587.264648438,6222.775
587.545654297,6152.95
587.826477051,6077.625
588.107421875,5877.0
588.388305664,5903.225
588.669189453,6005.525
588.950012207,5841.525
589.230834961,5717.1
589.511657715,5832.175
589.792358398,5929.4
590.073120117,5927.225
590.353881836,5901.325
590.63458252,5899.5
590.915283203,5896.525
591.195922852,5867.8
591.4765625,5925.4
591.757202148,5953.05
592.037780762,5935.05
592.31829834,5967.45
592.598937988,6185.725
592.879394531,6382.375
593.159912109,6269.175
593.440429688,6199.125
593.720825195,6181.875
594.001281738,6176.025
594.281677246,6070.925
594.562072754,6092.675
594.842407227,6230.5
595.122802734,6280.525
595.403137207,6230.125
595.683410645,6194.85
595.963623047,6184.675
596.243896484,6141.175
596.524169922,6133.1
596.804382324,6150.45
597.084533691,6192.75
597.364746094,6219.225
597.644836426,6223.95
597.924987793,6213.625
598.205078125,6179.15
598.485107422,6215.1
598.765197754,6349.475
599.045227051,6394.525
599.325195312,6305.575
599.605224609,6231.8
599.885192871,6281.85
600.165100098,6350.25
600.445007324,6289.75
600.724914551,6271.1
601.004760742,6283.425
601.284667969,6321.0
601.56451416,6263.75
601.844238281,6282.5
602.124084473,6290.35
602.403808594,6277.6
602.683532715,6344.35
602.963256836,6338.675
603.242919922,6358.025
603.522583008,6394.475
603.802246094,6383.1
604.081848145,6330.725
604.36138916,6316.575
604.641052246,6346.2
604.920532227,6308.25
605.200073242,6342.425
605.479614258,6384.025
605.759094238,6418.225
606.038574219,6407.775
606.317932129,6341.425
606.597412109,6327.15
606.87677002,6346.8
607.15612793,6370.375
607.435546875,6387.3
607.714782715,6385.15
607.99407959,6350.575
608.273376465,6337.75
608.552612305,6338.6
608.831848145,6366.0
609.111083984,6384.475
609.390258789,6354.825
609.669433594,6350.175
609.948608398,6428.875
610.227722168,6414.8
610.506713867,6326.55
610.785888672,6357.75
611.064880371,6351.425
611.34387207,6349.35
611.622924805,6381.875
611.901916504,6370.775
612.180847168,6301.6
612.459777832,6311.55
612.738647461,6282.875
613.01751709,6271.375
613.296447754,6233.55
613.575317383,6218.0
613.854064941,6128.25
614.132873535,6028.3
614.411621094,5985.3
614.690368652,5929.65
614.969177246,5861.275
615.247802734,5765.925
615.526489258,5737.075
615.805175781,5613.975
616.08380127,5507.75
616.362365723,5407.425
616.640991211,5348.075
616.919555664,5297.925
617.198059082,5424.225
617.4765625,5702.8
617.755126953,5891.775
618.033569336,5911.75
618.311950684,5896.5
618.590454102,5912.925
618.868774414,5871.75
619.147155762,5890.975
619.425598145,5876.4
619.703857422,5893.675
619.982177734,5887.775
620.260498047,5870.55
620.538757324,5849.0
620.816955566,5817.15
621.095214844,5773.925
621.373413086,5792.525
621.651550293,5858.825
621.929748535,5875.15
622.207824707,5851.775
622.485900879,5881.6
622.764038086,5871.2
623.042053223,5918.325
623.320007324,5948.35
623.598083496,5950.375
623.876037598,5943.4
624.153991699,5964.375
624.432006836,5967.0
624.709838867,5966.45
624.987731934,5999.35
625.265563965,5981.475
625.543395996,6003.025
625.821228027,6051.525
626.098999023,6043.25
626.376831055,6105.0
626.654541016,6121.275
626.932250977,6139.175
627.209960938,6203.475
627.487670898,6224.575
627.765319824,6247.525
628.04296875,6252.425
628.320495605,6231.6
628.598083496,6240.975
628.875671387,6270.95
629.153259277,6330.0
629.430725098,6376.85
629.708251953,6368.625
629.985656738,6406.475
630.263122559,6449.075
630.540588379,6470.525
630.817932129,6472.75
631.095275879,6553.925
631.372680664,6564.425
631.649963379,6627.975
631.927246094,6699.425
632.204589844,6694.575
632.481811523,6770.325
632.759033203,6871.6
633.036254883,6876.825
633.313415527,6978.325
633.590576172,7042.6
633.867736816,7137.75
634.144836426,7249.0
634.421875,7275.675
634.698913574,7349.9
634.976013184,7418.425
635.252990723,7478.45
635.529968262,7518.375
635.807006836,7615.175
636.08392334,7580.125
636.360839844,7469.925
636.637756348,7365.15
636.914611816,7349.475
637.191467285,7309.5
637.468261719,7420.25
637.745056152,7354.175
638.021789551,7389.5
638.298583984,7393.9
638.575317383,7433.4
638.851989746,7465.425
639.12878418,7476.85
639.405395508,7455.6
639.682006836,7475.9
639.958618164,7487.975
640.235229492,7457.775
640.511779785,7511.075
640.788330078,7515.25
641.064880371,7488.225
641.341308594,7497.175
641.617797852,7498.525
641.894226074,7494.0
642.170654297,7509.025
642.44708252,7545.4
642.723388672,7472.225
642.999755859,7499.85
643.276123047,7535.125
643.552429199,7486.15
643.828674316,7490.9
644.104919434,7467.05
644.381164551,7461.2
644.657348633,7456.075
644.933532715,7452.275
645.209716797,7449.85
645.485839844,7439.75
645.761901855,7427.025
646.038024902,7426.175
646.314086914,7450.575
646.590087891,7446.925
646.866149902,7494.325
647.142150879,7422.45
647.41809082,7412.3
647.694030762,7411.075
647.969970703,7412.175
648.245788574,7445.7
648.521728516,7435.475
648.797546387,7392.525
649.073303223,7446.125
649.349182129,7410.575
649.624938965,7410.175
649.900634766,7404.9
650.176391602,7386.575
650.452087402,7379.65
650.727783203,7403.975
651.003479004,7395.575
651.279052734,7403.2
651.554626465,7367.075
651.83026123,7359.7
652.105773926,7392.725
652.381286621,7339.825
652.656860352,7370.15
652.932312012,7396.55
653.207763672,7359.325
653.483215332,7412.825
653.758605957,7401.4
654.033935547,7402.825
654.309326172,7399.6
654.584716797,7429.6
654.859985352,7433.25
655.135253906,7482.875
655.410583496,7505.65
655.685791016,8662.95
655.9609375,13376.925
656.236206055,13059.3
656.511291504,8716.875
656.786437988,7674.125
657.061645508,7563.45
657.336669922,7509.2
657.611694336,7546.85
657.886779785,7596.625
658.161804199,7580.225
658.436828613,7571.65
658.711791992,7572.2
658.986755371,7589.325
659.261657715,7595.55
659.536621094,7606.225
659.811401367,7610.65
660.086303711,7636.15
660.36114502,7633.025
660.635864258,7636.5
660.910644531,7695.025
661.185424805,7686.525
661.460205078,7717.45
661.734863281,7684.1
662.009521484,7691.25
662.284179688,7739.05
662.558776855,7752.825
662.833435059,7806.55
663.108032227,7792.4
663.382568359,7770.125
663.657043457,7838.375
663.93157959,7851.275
664.206054688,7863.375
664.48046875,7899.35
664.755004883,7930.775
665.02935791,7946.4
665.303710938,7945.75
665.578125,8002.775
665.852416992,7996.775
666.126708984,7991.7
666.401062012,8006.95
666.675292969,8071.5
666.949462891,8082.025
667.223754883,8095.3
667.497924805,8121.2
667.772094727,8149.675
668.046264648,8114.225
668.3203125,8180.55
668.594421387,8179.725
668.868469238,8183.1
669.14251709,8201.55
669.416503906,8231.85
669.690551758,8243.425
669.964477539,8250.925
670.23840332,8283.3
670.512329102,8287.325
670.786254883,8244.9
671.060058594,8318.525
671.333984375,8366.15
671.607788086,8382.4
671.881530762,8367.975
672.155334473,8392.55
672.429077148,8405.925
672.702758789,8444.675
672.97644043,8388.025
673.25012207,8399.75
673.523742676,8396.1
673.797302246,8441.3
674.070922852,8490.325
674.344482422,8519.4
674.618041992,8523.35
674.891601562,8494.875
675.165100098,8543.3
675.438476562,8557.275
675.711975098,8581.925
675.985412598,8537.275
676.258789062,8526.05
676.532165527,8602.25
676.805480957,8574.975
677.078796387,8629.225
677.352111816,8641.475
677.625366211,8622.4
677.898620605,8633.65
678.171875,8698.85
678.445007324,8680.275
678.718200684,8684.85
678.991394043,8696.075
679.264404297,8688.675
679.537536621,8735.275
679.81060791,8743.075
680.083679199,8771.925
680.356689453,8762.25
680.629699707,8788.65
680.902648926,8754.95
681.175598145,8829.8
681.448547363,8881.775
681.721435547,8822.2
681.99420166,8850.775
682.267150879,8847.725
682.539916992,8905.125
682.812744141,8876.3
683.085510254,8855.225
683.358215332,8885.625
683.63092041,8893.975
683.903625488,8905.875
684.176330566,8894.125
684.448913574,8878.175
684.721557617,8884.0
684.99420166,8948.375
685.266662598,8950.5
685.539245605,8969.725
685.811767578,9019.95
686.084289551,9002.65
686.356689453,9024.175
686.629150391,9055.675
686.901550293,9103.025
687.17401123,9105.6
687.446350098,9147.625
687.718688965,9135.05
687.990966797,9176.875
688.263305664,9195.1
688.535522461,9152.175
688.807739258,9184.025
689.079956055,9222.65
689.352172852,9237.65
689.624328613,9266.125
689.896484375,9288.0
690.168518066,9263.85
690.440612793,9323.4
690.71270752,9332.125
690.984741211,9328.8
691.256713867,9372.125
691.528747559,9371.775
691.800720215,9387.625
692.072631836,9435.9
692.344543457,9470.2
692.616394043,9460.575
692.888244629,9502.425
693.160095215,9531.925
693.431945801,9557.9
693.703674316,9513.725
693.975463867,9496.225
694.247131348,9559.575
694.518859863,9570.125
694.790588379,9616.1
695.062255859,9611.65
695.33380127,9610.925
695.60546875,9590.25
695.87701416,9632.05
696.148498535,9635.7
696.42010498,9670.825
696.691589355,9692.275
696.96307373,9715.65
697.234558105,9778.175
697.50592041,9759.5
697.777282715,9793.525
698.048706055,9788.925
698.320068359,9859.275
698.591308594,9801.1
698.862670898,9811.825
699.133972168,9851.925
699.405151367,9841.525
699.676391602,9918.15
699.947570801,9848.3
700.21875,9891.525
700.489868164,9886.3
700.761047363,9920.475
701.032104492,9999.675
701.303100586,9921.45
701.57421875,9987.65
701.845214844,9970.75
702.116149902,10033.225
702.387207031,9981.725
702.65814209,10036.075
702.928955078,10075.9
703.199951172,10052.4
703.47076416,10052.625
703.741577148,10042.775
704.012451172,10075.05
704.28314209,10135.975
704.553955078,10098.825
704.824707031,10165.15
705.095397949,10140.5
705.366027832,10165.875
705.63671875,10153.075
705.907348633,10154.825
706.17791748,10151.0
706.448486328,10192.7
706.719055176,10246.325
706.989562988,10226.3
707.260131836,10260.35
707.530517578,10286.625
707.800964355,10283.925
708.071411133,10246.625
708.341796875,10254.975
708.612182617,10234.675
708.882446289,10216.675
709.152893066,10233.475
709.423156738,10262.5
709.693359375,10237.025
709.963623047,10304.25
710.233825684,10331.45
710.503967285,10284.6
710.774169922,10323.9
711.044311523,10277.275
711.31439209,10286.65
711.584533691,10310.075
711.854553223,10298.175
712.124572754,10327.525
712.39465332,10289.925
712.664611816,10343.4
712.934509277,10387.5
713.204467773,10324.0
713.474365234,10376.9
713.74420166,10357.775
714.014099121,10407.925
714.283874512,10405.8
714.553710938,10438.35
714.823486328,10415.6
715.093200684,10372.1
715.362915039,10420.425
715.632629395,10407.05
715.902282715,10360.775
716.171875,10412.05
716.441589355,10403.625
716.711181641,10347.65
716.980712891,10384.875
717.250244141,10365.95
717.519775391,10404.175
717.78918457,10420.65
718.058654785,10491.375
718.328125,10481.05
718.597473145,10425.875
718.866882324,10449.025
719.136230469,10481.825
719.405578613,10521.9
719.674865723,10523.475
719.944152832,10493.425
720.213439941,10450.7
720.48260498,10520.625
720.75177002,10548.325
721.020996094,10540.3
721.290100098,10562.925
721.559204102,10514.65
721.828308105,10562.725
722.097351074,10570.525
722.366455078,10489.325
722.635437012,10512.575
722.904418945,10478.625
723.173400879,10522.825
723.442321777,10561.775
723.711181641,10539.175
723.980102539,10570.025
724.248962402,10525.825
724.51776123,10502.775
724.786560059,10553.75
725.055358887,10577.875
725.324035645,10568.625
725.592834473,10559.4
725.86151123,10536.2
726.130187988,10578.15
726.398803711,10533.45
726.667419434,10563.3
726.935974121,10535.65
727.204528809,10506.25
727.473083496,10518.875
727.741638184,10493.125
728.010070801,10465.7
728.278564453,10424.175
728.546936035,10455.0
728.815368652,10346.05
729.08380127,10270.1
729.352111816,10272.1
729.620361328,10180.15
729.88873291,10252.45
730.156982422,10282.85
730.425231934,10302.45
730.693481445,10287.675
730.961669922,10382.95
731.229797363,10416.85
731.49798584,10439.45
731.766113281,10525.025
732.034118652,10601.425
732.302246094,10664.0
732.570251465,10711.7
732.838256836,10696.3
733.106262207,10873.3
733.374145508,10893.475
733.642089844,10930.875
733.909973145,10962.2
734.177856445,11078.6
734.445678711,11182.725
734.713562012,11270.3
734.981323242,11250.575
735.249084473,11317.65
735.516845703,11463.2
735.784545898,11518.9
736.052185059,11576.8
736.319885254,11706.0
736.587524414,11795.675
736.855102539,11860.05
737.122619629,12007.0
737.390197754,12029.875
737.657714844,12160.625
737.925170898,12204.625
738.192749023,12359.85
738.460144043,12435.925
738.727539062,12454.575
738.994995117,12565.95
739.262329102,12693.775
739.529663086,12820.425
739.79699707,12900.7
740.06427002,12980.675
740.331481934,13074.8
740.598754883,13133.35
740.865905762,13082.325
741.133056641,13297.325
741.40032959,13321.6
741.667358398,13404.025
741.934448242,13474.8
742.201599121,13483.95
742.468566895,13588.025
742.735534668,13613.85
743.002563477,13658.3
743.26953125,13645.4
743.536437988,13743.575
743.803405762,13828.925
744.0703125,13791.875
744.337097168,13981.5
744.604003906,13865.1
744.870727539,13952.55
745.137512207,14009.1
745.40423584,14004.65
745.670959473,13976.8
745.93762207,14054.65
746.204284668,14108.175
746.470947266,14101.55
746.737548828,14046.85
747.004089355,14074.125
747.270751953,14094.15
747.53717041,14117.45
747.803710938,14048.525
748.070251465,14057.15
748.336608887,14050.2
748.603027344,14040.65
748.869445801,14026.85
749.135803223,14016.925
749.402099609,13996.525
749.668457031,14033.625
749.934753418,14013.625
750.20098877,13952.025
750.467224121,14049.475
750.733459473,13988.975
750.999572754,13997.05
751.26574707,13844.8
751.531860352,13937.5
751.797912598,13901.25
752.064025879,13809.825
752.330078125,13812.0
752.596069336,13759.3
752.862060547,13729.65
753.127990723,13791.65
753.393920898,13729.35
753.659912109,13703.7
753.925720215,13734.15
754.19152832,13662.3
754.457397461,13620.525
754.723144531,13573.7
754.988952637,13544.425
755.254699707,13594.275
755.520385742,13564.825
755.786071777,13545.9
756.051696777,13524.65
756.317382812,13441.85
756.582946777,13396.05
756.848510742,13422.525
757.114074707,13355.875
757.379577637,13360.425
757.645080566,13433.7
757.910583496,13368.525
758.175964355,13319.6
758.441345215,13286.1
758.706848145,13097.075
758.972106934,13120.85
759.237426758,13173.1
759.502807617,13187.05
759.768005371,13174.95
760.03326416,13151.05
760.298522949,13053.925
760.563659668,13089.2
760.828857422,13027.425
761.093994141,13056.2
761.359130859,12972.575
761.624206543,12911.025
761.889282227,12884.825
762.15423584,12880.025
762.419250488,12804.8
762.684265137,12795.875
762.949157715,12782.225
763.214050293,12793.725
763.479003906,12775.425
763.743835449,12726.7
764.008666992,12705.975
764.2734375,12698.95
764.538208008,12770.55
764.802978516,12751.95
765.067687988,12724.15
765.332397461,12678.075
765.597045898,12630.45
765.861694336,12564.25
766.126342773,12531.475
766.390930176,12519.65
766.655395508,12492.525
766.920043945,12444.525
767.184509277,12428.225
767.448974609,12414.15
767.713439941,12415.375
767.977783203,12385.85
768.2421875,12449.275
768.506591797,12354.65
768.770874023,12446.2
769.03515625,12368.825
769.299499512,12346.9
769.563720703,12353.925
769.827941895,12260.65
770.092163086,12253.825
770.356323242,12259.95
770.620483398,12310.925
770.88458252,12328.05
771.148681641,12337.975
771.412719727,12289.7
771.676757812,12298.7
771.940734863,12234.75
772.204711914,12216.3
772.468688965,12191.475
772.73260498,12182.15
772.996459961,12220.675
773.260314941,10910.325
773.524169922,1378.7
773.787963867,158.025
774.051696777,123.625
774.315551758,120.075
774.579223633,123.0
774.842895508,119.7
775.106567383,122.65
775.370239258,117.075
775.633789062,119.675
775.897399902,124.025
776.160949707,117.175
776.424499512,119.875
776.687988281,123.125
776.951477051,125.375
777.214904785,116.975
777.47833252,120.35
