191.299911499,100.85
191.603515625,106.525
191.907119751,97.8
192.210693359,108.225
192.514251709,100.55
192.817810059,102.1
193.121368408,102.825
193.42489624,104.1
193.728408813,99.7
194.031936646,103.625
194.33543396,93.25
194.638916016,111.9
194.94241333,100.75
195.245880127,98.925
195.549331665,95.2
195.852767944,102.4
196.156204224,220.1
196.459625244,214.95
196.763015747,218.525
197.066436768,226.05
197.369812012,215.325
197.673187256,223.45
197.9765625,216.95
198.279922485,219.1
198.583251953,213.7
198.886581421,217.525
199.18989563,223.975
199.493209839,217.8
199.79649353,212.4
200.09979248,224.2
200.403076172,221.15
200.706314087,219.35
201.009567261,220.65
201.312820435,223.05
201.616027832,212.275
201.919235229,205.175
202.222457886,211.05
202.525634766,213.2
202.828826904,208.375
203.132003784,205.4
203.435150146,204.375
203.738296509,210.0
204.041412354,207.375
204.344558716,211.175
204.647659302,212.75
204.950759888,212.275
205.253845215,210.65
205.556930542,205.325
205.859985352,210.025
206.163024902,210.3
206.466079712,215.475
206.769104004,223.875
207.072113037,217.1
207.375137329,213.95
207.678131104,213.45
207.981109619,216.95
208.284088135,217.075
208.587036133,216.925
208.889984131,217.9
209.19291687,222.725
209.495849609,223.8
209.798751831,219.65
210.101654053,217.625
210.404556274,227.025
210.707427979,222.575
211.010269165,236.6
211.31312561,231.9
211.615982056,229.05
211.918807983,234.525
212.221618652,227.625
212.524429321,224.4
212.827224731,236.35
213.130004883,235.3
213.432769775,237.7
213.735534668,236.45
214.038269043,243.925
214.341003418,242.625
214.643737793,246.3
214.946456909,248.225
215.249145508,249.975
215.551834106,255.7
215.854507446,255.05
216.157165527,252.875
216.45980835,255.7
216.762451172,261.3
217.065078735,267.325
217.36769104,267.175
217.670303345,268.975
217.972885132,271.725
218.275466919,277.175
218.578048706,271.325
218.880599976,283.225
219.183120728,286.3
219.485656738,291.875
219.788192749,314.175
220.090682983,326.25
220.393188477,351.5
220.695663452,387.425
220.998138428,424.425
221.300582886,475.1
221.603042603,528.95
221.905487061,598.7
222.207901001,682.5
222.510299683,772.825
222.812728882,877.5
223.115097046,1001.85
223.41746521,1123.05
223.719848633,1251.65
224.022171021,1397.675
224.324508667,1534.475
224.626846313,1715.4
224.929168701,1850.45
225.231460571,2027.6
225.533737183,2197.0
225.836013794,2375.075
226.138290405,2527.6
226.440536499,2692.9
226.742767334,2850.45
227.044998169,3007.425
227.347213745,3186.65
227.649429321,3339.325
227.951629639,3466.4
228.253799438,3592.925
228.555953979,3708.975
228.858123779,3844.15
229.160263062,3954.725
229.462371826,4094.25
229.764511108,4182.2
230.066619873,4287.875
230.36869812,4389.95
230.670776367,4509.675
230.972854614,4602.525
231.274902344,4732.0
231.576950073,4859.825
231.878967285,4971.275
232.180999756,5085.9
232.48298645,5211.425
232.784988403,5328.55
233.086975098,5460.35
233.388946533,5552.775
233.69090271,5703.925
233.992858887,5813.3
234.294769287,5868.925
234.596694946,5947.275
234.898605347,6094.325
235.200500488,6179.25
235.502380371,6245.05
235.804244995,6298.6
236.106109619,6354.725
236.407958984,6427.9
236.709777832,6501.2
237.011581421,6572.05
237.313400269,6581.375
237.615203857,6627.25
237.916976929,6696.7
238.21875,6752.05
238.520507812,6787.5
238.822250366,6847.8
239.12399292,6887.25
239.425704956,6953.575
239.727401733,6927.75
240.02911377,7023.55
240.330780029,7009.825
240.632446289,7058.25
240.93409729,7130.75
241.23576355,7147.85
241.537384033,7218.475
241.839004517,7253.075
242.140594482,7297.275
242.442199707,7369.175
242.743774414,7418.625
243.045333862,7471.2
243.346923828,7477.9
243.648452759,7541.075
243.949966431,7542.025
244.251495361,7590.85
244.552993774,7618.8
244.854492188,7612.175
245.155975342,7645.4
245.457443237,7669.3
245.758880615,7645.4
246.060333252,7662.075
246.36177063,7612.65
246.66317749,7617.6
246.964569092,7610.2
247.265945435,7609.35
247.567337036,7605.8
247.86869812,7631.275
248.170059204,7658.675
248.471389771,7658.425
248.772705078,7689.225
249.074035645,7749.8
249.375335693,7789.3
249.676620483,7818.725
249.977890015,7852.725
250.279159546,8002.1
250.58039856,8047.275
250.881637573,8091.65
251.182876587,8191.875
251.484069824,8294.15
251.785263062,8376.85
252.086456299,8514.4
252.387619019,8569.525
252.688781738,8664.725
252.989929199,8742.7
253.291061401,8847.6
253.592178345,8991.775
253.893280029,9039.75
254.194366455,9140.55
254.49546814,9176.425
254.796524048,9193.525
255.097579956,9316.875
255.398620605,9327.0
255.699645996,9394.025
256.000640869,9394.975
256.30166626,9427.55
256.602661133,9498.125
256.903656006,9460.6
257.204589844,9466.9
257.505523682,9437.225
257.80645752,9479.475
258.107391357,9444.575
258.408294678,9420.1
258.709228516,9335.175
259.010070801,9281.525
259.310943604,9232.425
259.611846924,9187.7
259.912658691,9079.375
260.213500977,9037.15
260.514343262,8938.0
260.815124512,8821.6
261.115936279,8784.95
261.416717529,8732.725
261.717468262,8676.025
262.018218994,8616.825
262.318969727,8583.9
262.619689941,8584.0
262.920410156,8646.95
263.221130371,8674.8
263.521789551,8711.575
263.822479248,8748.3
264.123138428,8797.5
264.42376709,8795.725
264.72442627,8773.025
265.025054932,8742.425
265.325622559,8740.75
265.626251221,8729.3
265.926818848,8642.825
266.227386475,8573.775
266.527954102,8522.9
266.828460693,8477.975
267.12902832,8335.55
267.429534912,8269.275
267.730010986,8186.75
268.030517578,8079.775
268.330993652,8044.275
268.631439209,7977.525
268.931915283,7893.325
269.232299805,7847.425
269.532745361,7793.925
269.8331604,7681.8
270.133544922,7641.825
270.433929443,7641.85
270.734313965,7569.55
271.034637451,7573.1
271.334991455,7546.925
271.635314941,7547.425
271.935638428,7556.525
272.235931396,7588.675
272.536254883,7613.2
272.836486816,7675.175
273.136749268,7751.2
273.437011719,7859.0
273.737213135,7957.575
274.037445068,8019.775
274.337677002,8122.325
274.6378479,8223.625
274.938049316,8380.5
275.238220215,8462.225
275.538360596,8628.2
275.838500977,8697.2
276.138641357,8885.85
276.438751221,8895.725
276.738830566,9006.05
277.03894043,9091.375
277.338989258,9216.4
277.639038086,9306.275
277.939056396,9340.375
278.239105225,9384.775
278.539093018,9524.625
278.839141846,9538.5
279.139129639,9605.875
279.439086914,9699.2
279.739044189,9741.425
280.039001465,9820.95
280.338928223,9850.9
280.63885498,9888.025
280.938781738,9957.825
281.238647461,9968.7
281.538513184,9944.225
281.838409424,10003.45
282.138244629,10022.125
282.438079834,10037.4
282.737945557,10055.175
283.037719727,10066.325
283.337524414,10093.25
283.637298584,10069.175
283.937072754,10072.175
284.236816406,10078.025
284.536560059,10032.1
284.836303711,10033.675
285.136016846,10117.9
285.43572998,10083.175
285.735412598,10052.2
286.035064697,10030.825
286.334747314,10103.025
286.634368896,10073.925
286.933990479,9978.0
287.233642578,9911.0
287.533203125,9902.275
287.832824707,9808.55
288.132385254,9703.5
288.431945801,9521.375
288.731506348,9329.925
289.031036377,9121.875
289.330566406,8998.675
289.630065918,8957.5
289.92956543,8895.6
290.229034424,9004.45
290.528503418,9200.2
290.827941895,9377.675
291.127380371,9555.725
291.42678833,9682.6
291.726226807,9855.775
292.025604248,9874.175
292.324981689,9871.125
292.624359131,9913.675
292.923736572,9920.3
293.223052979,9965.475
293.522369385,9904.075
293.821685791,9854.025
294.12097168,9815.7
294.420257568,9810.65
294.719543457,9734.8
295.018768311,9727.95
295.318023682,9641.575
295.617248535,9551.875
295.916442871,9463.3
296.215667725,9383.325
296.514862061,9234.625
296.813995361,8975.775
297.11315918,8728.7
297.412322998,8566.275
297.711425781,8512.675
298.010559082,8696.0
298.309631348,8931.3
298.608734131,9175.5
298.907806396,9401.175
299.206848145,9552.45
299.505889893,9635.075
299.804901123,9755.2
300.103912354,9853.35
300.402954102,9927.125
300.701904297,9988.175
301.00088501,10102.525
301.299835205,10156.875
301.5987854,10158.05
301.897735596,10310.125
302.196624756,10353.775
302.495513916,10424.6
302.794403076,10452.1
303.093292236,10512.9
303.392120361,10576.075
303.690979004,10635.725
303.989837646,10718.65
304.288604736,10764.15
304.587402344,10733.25
304.886199951,10811.175
305.184967041,10856.125
305.483734131,10928.025
305.782501221,10932.0
306.081176758,10920.475
306.37991333,11005.875
306.678619385,10978.95
306.977294922,10988.95
307.275970459,11009.425
307.574645996,11030.875
307.873260498,10995.65
308.171875,11000.175
308.470489502,10971.6
308.769104004,10885.2
309.067687988,10936.3
309.366241455,10928.425
309.664794922,10829.525
309.963348389,10818.575
310.261871338,10840.075
310.560394287,10837.15
310.858856201,10870.225
311.157348633,10923.825
311.455810547,10904.575
311.754272461,10935.825
312.052703857,11012.375
312.351135254,11040.075
312.649536133,11028.3
312.947937012,11002.6
313.246307373,11005.5
313.544647217,11033.425
313.843017578,10940.5
314.141387939,10894.675
314.439697266,10980.7
314.738006592,10881.4
315.036315918,10795.225
315.334564209,10708.05
315.6328125,10638.525
315.931091309,10551.625
316.229309082,10384.025
316.527526855,10225.225
316.825744629,10180.85
317.123901367,10041.525
317.422088623,10001.15
317.720245361,9995.35
318.0184021,10014.425
318.316497803,10062.9
318.614654541,10115.15
318.912750244,10187.95
319.21081543,10180.075
319.50894165,10238.325
319.806945801,10209.625
320.104980469,10191.325
320.403045654,10197.9
320.701049805,10156.075
320.999023438,10120.375
321.297027588,10075.75
321.595001221,10029.9
321.892913818,10000.2
322.190887451,9915.425
322.488830566,9850.4
322.786712646,9811.625
323.084625244,9710.15
323.382507324,9632.525
323.680358887,9574.65
323.978210449,9468.825
324.276062012,9416.6
324.573852539,9346.05
324.871643066,9267.35
325.169464111,9177.25
325.467224121,9132.975
325.764984131,9059.575
326.062744141,8938.925
326.360473633,8858.825
326.658203125,8775.05
326.955871582,8684.275
327.253570557,8607.35
327.551239014,8557.45
327.848907471,8471.8
328.146514893,8383.025
328.444152832,8323.625
328.741790771,8246.275
329.039367676,8155.6
329.336914062,8097.275
329.634521484,8017.225
329.932067871,7958.975
330.229553223,7856.125
330.527160645,7805.575
330.824615479,7753.325
331.12210083,7654.1
331.419586182,7530.575
331.717041016,7447.25
332.014465332,7342.625
332.311920166,7322.125
332.609313965,7233.475
332.906707764,7261.65
333.204101562,7238.925
333.501495361,7224.6
333.798828125,7299.675
334.096160889,7292.1
334.39352417,7374.875
334.690795898,7440.025
334.988098145,7483.125
335.285400391,7559.925
335.582641602,7542.075
335.879882812,7608.15
336.177124023,7623.7
336.474334717,7694.625
336.77154541,7702.6
337.068725586,7725.7
337.365905762,7714.5
337.66305542,7735.775
337.960205078,7748.6
338.257324219,7761.225
338.554443359,7765.175
338.8515625,7801.2
339.148590088,7785.525
339.445648193,7812.525
339.742736816,7750.8
340.039764404,7756.775
340.336761475,7688.475
340.63381958,7664.625
340.930755615,7606.525
341.227722168,7507.9
341.524688721,7387.375
341.821624756,7357.7
342.118560791,7386.6
342.415496826,7482.975
342.712402344,7623.425
343.009246826,7802.6
343.306121826,7947.15
343.602966309,8010.1
343.899810791,8105.425
344.196624756,8196.275
344.493438721,8193.2
344.79019165,8282.475
345.086975098,8342.65
345.383758545,8398.25
345.680480957,8372.95
345.977203369,8382.75
346.273956299,8442.7
346.570617676,8438.3
346.86730957,8437.45
347.163970947,8425.325
347.460601807,8470.9
347.757232666,8482.775
348.053894043,8475.2
348.350463867,8395.425
348.647064209,8353.9
348.943634033,8335.25
349.24017334,8375.225
349.536712646,8302.75
349.833251953,8291.125
350.129760742,8247.125
350.426208496,8268.625
350.722747803,8233.775
351.019195557,8221.85
351.315612793,8160.25
351.612060547,8124.975
351.908508301,8054.45
352.204864502,7969.425
352.501281738,7923.2
352.797637939,7864.25
353.093963623,7721.8
353.390319824,7683.0
353.686645508,7611.975
353.982940674,7508.7
354.27923584,7467.875
354.575531006,7411.375
354.871765137,7389.925
355.167999268,7336.075
355.464233398,7345.0
355.760437012,7370.65
356.056640625,7373.0
356.352813721,7377.275
356.648956299,7376.8
356.945129395,7393.975
357.241271973,7390.15
357.537384033,7411.025
357.833496094,7334.075
358.129577637,7319.35
358.425628662,7300.9
358.721679688,7280.475
359.017730713,7270.625
359.313720703,7163.15
359.609710693,7138.975
359.905761719,7095.0
360.201721191,7039.425
360.497650146,6958.05
360.793609619,6926.525
361.089538574,6836.95
361.385437012,6739.375
361.681365967,6683.35
361.977233887,6650.025
362.273071289,6576.175
362.568908691,6438.875
362.864746094,6304.025
363.160552979,6159.55
363.456359863,5938.475
363.752166748,5807.975
364.047912598,5678.225
364.343658447,5641.8
364.639434814,5691.65
364.935119629,5752.225
365.230834961,5798.4
365.526550293,5829.875
365.822174072,5835.8
366.117858887,5889.55
366.413482666,5904.575
366.709075928,5934.325
367.004730225,5860.075
367.300292969,5818.975
367.595855713,5870.975
367.891448975,5742.675
368.186981201,5616.775
368.482513428,5589.175
368.778015137,5582.9
369.073547363,5529.575
369.36895752,5552.6
369.664428711,5405.975
369.95993042,5276.6
370.255310059,5245.0
370.550720215,5202.775
370.846160889,5168.225
371.14151001,5109.125
371.436859131,5097.55
371.73223877,5079.5
372.027557373,5025.975
372.322875977,4943.825
372.618164062,4924.1
372.913482666,4852.65
373.208709717,4841.275
373.503967285,4761.325
373.799194336,4721.95
374.094421387,4731.4
374.389648438,4676.2
374.684844971,4666.45
374.979980469,4738.9
375.275146484,4755.525
375.570281982,4774.3
375.865386963,4765.975
376.160522461,4715.475
376.455596924,4731.225
376.750640869,4839.45
377.045715332,4840.95
377.340759277,4882.425
377.635772705,4943.725
377.93081665,4992.075
378.225769043,5062.075
378.520751953,5128.3
378.815734863,5101.925
379.110656738,5298.6
379.405548096,5464.975
379.700500488,5289.45
379.995391846,5043.825
380.290252686,5096.2
380.585083008,5240.025
380.879974365,5259.975
381.17477417,5173.65
381.469543457,5118.9
381.764404297,5082.475
382.059143066,5143.1
382.353912354,5248.225
382.648651123,5329.5
382.943389893,5297.275
383.238067627,5095.875
383.532775879,5104.925
383.827484131,5047.15
384.12210083,5035.475
384.416778564,4975.325
384.711425781,4864.75
385.006011963,4890.975
385.300628662,4879.95
385.595184326,4986.725
385.88973999,5072.525
386.184295654,5184.475
386.478820801,5288.425
386.77331543,5398.275
387.067840576,5536.475
387.362335205,5643.95
387.656768799,5712.0
387.951202393,5755.125
388.245635986,5845.75
388.540039062,5920.25
388.834472656,6005.975
389.128875732,5882.725
389.423187256,5594.025
389.717559814,5538.95
390.011871338,5667.625
390.306182861,5698.925
390.600463867,5755.6
390.894775391,5826.95
391.189025879,5862.65
391.48324585,5865.85
391.777526855,5887.625
392.071685791,6165.875
392.365875244,6261.3
392.660064697,6348.625
392.95425415,6745.55
393.248382568,6736.85
393.542510986,6162.2
393.836608887,5933.675
394.130706787,5952.125
394.424804688,5856.3
394.71887207,6032.15
395.012878418,5999.75
395.306915283,5846.2
395.600921631,5780.125
395.894927979,5732.775
396.188903809,5806.775
396.482879639,5810.5
396.776794434,6042.0
397.070739746,6020.7
397.364654541,6041.325
397.658538818,6512.625
397.952423096,6527.8
398.246307373,6457.325
398.540100098,7101.975
398.833953857,6971.95
399.127746582,6384.9
399.421508789,6396.275
399.715301514,6340.95
400.009063721,6213.875
400.30279541,6039.875
400.596496582,5928.375
400.890258789,6137.8
401.183929443,6242.025
401.47756958,6102.825
401.771240234,5840.4
402.064880371,5820.125
402.35848999,5882.725
402.652130127,5761.225
402.945678711,5848.375
403.239257812,5775.175
403.532775879,5712.825
403.82635498,5754.425
404.119842529,5667.475
404.413360596,5664.45
404.706848145,5736.2
405.000274658,5631.25
405.293762207,5731.75
405.587188721,5794.875
405.880584717,5618.35
406.17401123,5380.5
406.467407227,5151.675
406.760742188,5170.4
407.054107666,5201.825
407.347442627,5109.275
407.640716553,5116.35
407.934051514,5160.2
408.227325439,5238.7
408.520568848,5499.0
408.813842773,5601.9
409.107086182,5365.025
409.400238037,5293.3
409.693450928,5220.4
409.986633301,5345.0
410.279754639,5248.65
410.572875977,4898.95
410.86605835,4832.825
411.159118652,4831.525
411.452209473,4848.075
411.745330811,4673.65
412.038360596,4603.225
412.331390381,4621.65
412.624420166,4670.6
412.917388916,4572.75
413.210388184,4355.65
413.503387451,4335.875
413.796295166,4196.5
414.089233398,4012.95
414.382141113,3908.725
414.675048828,3898.575
414.967926025,3921.35
415.260803223,3875.3
415.55368042,3881.225
415.846466064,3841.65
416.139282227,3930.15
416.432098389,4074.975
416.724853516,4078.75
417.017608643,3990.25
417.31036377,4033.025
417.603088379,4182.125
417.895782471,4127.975
418.188476562,4077.075
418.481140137,4174.95
418.773803711,4230.575
419.066436768,4213.85
419.359039307,4297.625
419.651641846,4279.35
419.944244385,4293.475
420.236816406,4240.3
420.529327393,4507.1
420.821899414,4599.55
421.114379883,4484.125
421.406860352,4791.25
421.699371338,5078.475
421.991821289,5006.35
422.284240723,4769.15
422.576721191,4600.5
422.869110107,4460.75
423.161468506,4412.75
423.453857422,4452.1
423.74621582,4307.35
424.038543701,4148.075
424.330871582,4083.375
424.623168945,4035.1
424.915435791,4169.375
425.207702637,4131.9
425.499969482,4073.275
425.792205811,3993.775
426.084411621,3694.025
426.376617432,3800.625
426.668762207,3887.875
426.9609375,3750.55
427.253082275,3876.575
427.545196533,4359.475
427.837310791,4057.45
428.129425049,3691.425
428.421447754,3936.075
428.713531494,3940.7
429.005554199,3938.875
429.297576904,3952.95
429.589599609,4460.25
429.881561279,4823.1
430.173522949,4560.25
430.465484619,4514.625
430.757415771,4589.775
431.049316406,4326.85
431.341186523,4054.85
431.633117676,3924.875
431.924957275,3560.075
432.21673584,3444.85
432.508636475,3623.225
432.800415039,3639.85
433.092163086,3508.25
433.383972168,3473.525
433.675689697,4323.75
433.967437744,4872.3
434.259155273,3761.25
434.550872803,3401.95
434.842498779,3481.7
435.134185791,3622.15
435.425842285,3665.55
435.717437744,3544.425
436.009063721,3329.75
436.30065918,3490.325
436.592224121,3884.8
436.883758545,3645.575
437.175323486,3340.375
437.466827393,3325.5
437.758331299,3328.425
438.049804688,3362.6
438.341247559,3432.925
438.63269043,3534.6
438.924163818,3514.2
439.215515137,3474.725
439.50692749,3350.4
439.798309326,3355.05
440.089660645,3372.6
440.380981445,3264.25
440.672332764,3272.225
440.963623047,3553.95
441.254882812,4096.35
441.546173096,4320.2
441.837402344,4016.4
442.128631592,3811.525
442.41986084,3775.4
442.711029053,3624.425
443.002197266,3709.925
443.293365479,3929.225
443.584503174,4072.15
443.875610352,4041.45
444.166717529,3747.1
444.457794189,3792.875
444.748840332,3784.775
445.039916992,3728.475
445.330932617,3835.45
445.621948242,3642.65
445.912963867,3410.95
446.203918457,3698.8
446.494812012,3972.375
446.785827637,3713.9
447.076721191,3514.925
447.367584229,3490.95
447.658447266,3456.85
447.949371338,3522.425
448.24017334,3365.0
448.530975342,3295.675
448.821838379,3476.65
449.112579346,3583.225
449.40335083,3487.15
449.694152832,3532.875
449.984863281,3537.025
450.27557373,3465.875
450.56628418,3534.625
450.856933594,3547.825
451.147583008,3373.375
451.438262939,3237.125
451.728881836,3493.525
452.019470215,3569.675
452.310089111,3338.275
452.600646973,3389.35
452.891174316,3450.375
453.181732178,3249.8
453.472229004,3087.225
453.762695312,3212.125
454.053222656,3245.95
454.343658447,3093.1
454.634063721,3027.8
454.924530029,3232.575
455.214935303,3401.075
455.505279541,3479.675
455.795715332,3307.225
456.086029053,3071.825
456.376312256,3056.4
456.666687012,3099.675
456.956939697,3223.65
457.247192383,3211.65
457.537445068,3294.05
457.827728271,3527.85
458.117919922,3434.0
458.408081055,3350.2
458.698303223,3549.45
458.988433838,3483.975
459.278564453,3271.55
459.568725586,3595.025
459.858825684,3721.875
460.148864746,3362.65
460.438995361,3334.6
460.729034424,3382.175
461.019042969,3382.975
461.309082031,3614.925
461.599060059,3489.025
461.889007568,2947.825
462.179016113,2738.95
462.468933105,3007.0
462.75881958,3142.175
463.048736572,2839.7
463.338592529,3154.125
463.628448486,3583.85
463.918365479,3225.525
464.2081604,3425.15
464.497924805,3383.75
464.787780762,3532.85
465.077514648,3880.2
465.367218018,3444.025
465.657012939,3672.9
465.946685791,4141.325
466.236358643,3691.8
466.526092529,3063.2
466.815734863,3068.875
467.105316162,2969.25
467.394927979,2996.225
467.684570312,2842.975
467.974121094,2951.6
468.263671875,3069.15
468.553222656,2823.475
468.842773438,2712.025
469.132232666,2567.5
469.42175293,2624.25
469.711212158,2574.575
470.000640869,2423.225
470.290100098,2502.375
470.579498291,2533.575
470.868835449,2542.2
471.158294678,2484.575
471.447601318,2484.0
471.736907959,2555.375
472.026275635,2629.9
472.315551758,2621.775
472.604797363,2610.075
472.894104004,2754.8
473.183319092,2894.0
473.47253418,2872.4
473.761779785,2859.225
474.05090332,2773.55
474.340087891,2740.75
474.629241943,2638.975
474.918365479,2852.75
475.207427979,3152.675
475.496551514,3190.95
475.785614014,2889.975
476.074645996,2646.95
476.363708496,2746.975
476.652679443,2922.225
476.941650391,2716.3
477.230682373,2542.175
477.519622803,2536.9
477.808502197,2716.325
478.097412109,3030.375
478.386352539,2969.775
478.675201416,2658.075
478.964050293,2537.8
479.25289917,2767.45
479.541717529,2819.275
479.830474854,2648.325
480.11932373,3049.225
480.408050537,3251.0
480.696777344,2809.2
480.985534668,2657.35
481.274200439,2772.5
481.562866211,3064.425
481.851593018,3091.325
482.140197754,3007.225
482.428833008,2823.775
482.717468262,2577.975
483.006011963,2622.85
483.294586182,2780.35
483.5831604,2805.15
483.871673584,2643.275
484.16015625,2825.125
484.448699951,3088.5
484.7371521,3143.275
485.02557373,3153.45
485.314025879,2838.975
485.602416992,4402.175
485.890777588,15416.3
486.179199219,13822.475
486.467559814,3734.875
486.755859375,2712.925
487.044219971,3160.625
487.332519531,3393.475
487.620758057,2911.6
487.908966064,2609.725
488.197265625,2360.025
488.485473633,2249.125
488.773651123,2395.4
489.061859131,2377.45
489.350006104,2321.075
489.638122559,2256.725
489.926300049,2289.825
490.214355469,2228.525
490.502441406,2159.575
490.790527344,2075.0
491.078552246,2317.4
491.366546631,2306.375
491.654602051,2060.775
491.942565918,2121.3
492.230499268,2177.25
492.518493652,2125.85
492.806396484,2175.3
493.094268799,2066.325
493.382202148,2104.65
493.670074463,2261.1
493.957885742,2071.175
494.245727539,2072.7
494.533508301,2273.3
494.821289062,2135.175
495.109100342,1953.775
495.396850586,1895.975
495.684539795,1846.25
495.972290039,2103.525
496.25994873,2505.675
496.547607422,2512.75
496.835296631,2298.1
497.122894287,1923.725
497.410522461,1815.475
497.6980896,1823.7
497.985687256,1779.175
498.273223877,1917.55
498.560760498,2003.825
498.848266602,2027.525
499.135772705,1982.6
499.423217773,2040.175
499.710693359,2167.65
499.998138428,2087.7
500.285522461,1887.35
500.572937012,1792.35
500.860290527,1879.95
501.147644043,1985.35
501.434997559,2271.475
501.722290039,2107.475
502.00958252,1828.025
502.296875,2143.05
502.584106445,2127.85
502.871337891,1920.15
503.158599854,2004.875
503.445770264,2103.05
503.732910156,2065.425
504.020141602,1850.2
504.307220459,1823.9
504.594329834,1860.025
504.881469727,1789.225
505.168518066,1881.65
505.455535889,1965.75
505.742614746,1808.5
506.029632568,1733.625
506.316589355,1963.0
506.603637695,2047.875
506.890563965,1824.55
507.177459717,1632.45
507.464385986,1529.05
507.751312256,1798.975
508.038146973,1891.425
508.325012207,1723.275
508.611877441,1803.175
508.898681641,1824.225
509.185424805,1622.175
509.472259521,1567.825
509.759002686,1672.7
510.045715332,1718.375
510.332458496,1648.825
510.619140625,1725.7
510.905761719,1624.9
511.192504883,1608.675
511.479095459,1664.75
511.765686035,1600.325
512.052307129,1505.225
512.338928223,1438.875
512.625427246,1509.85
512.91204834,1583.625
513.198486328,1558.025
513.484985352,1512.9
513.77142334,1428.125
514.057922363,1480.725
514.344299316,1480.825
514.63079834,1431.175
514.917175293,1415.05
515.203552246,1298.65
515.489868164,1273.1
515.776245117,1417.8
516.0625,1470.625
516.348815918,1350.05
516.635070801,1399.05
516.921325684,1464.1
517.207580566,1391.425
517.493774414,1276.45
517.779968262,1292.2
518.066101074,1335.475
518.352294922,1288.7
518.638366699,1286.275
518.924499512,1384.725
519.210632324,1478.2
519.496643066,1430.9
519.782714844,1314.75
520.068786621,1272.85
520.354736328,1221.8
520.640686035,1173.425
520.926757812,1229.2
521.212646484,1322.325
521.498535156,1330.225
521.784484863,1255.975
522.0703125,1185.05
522.356262207,1207.125
522.642089844,1295.0
522.927856445,1285.95
523.213684082,1274.575
523.499511719,1263.825
523.78527832,1306.9
524.070983887,1367.75
524.356750488,1348.0
524.64239502,1303.35
524.928039551,1291.075
525.213806152,1317.1
525.499389648,1291.45
525.784973145,1325.475
526.070617676,1387.625
526.356140137,1351.75
526.641723633,1352.25
526.927307129,1429.425
527.212768555,1438.95
527.498291016,1412.175
527.783752441,1417.45
528.069213867,1371.275
528.354675293,1410.875
528.640014648,1613.25
528.925476074,1683.775
529.21081543,1589.85
529.496154785,1572.4
529.781555176,1526.025
530.066833496,1544.55
530.352050781,1568.975
530.637390137,1546.975
530.922607422,1546.6
531.207824707,1557.325
531.493041992,1524.35
531.778198242,1620.9
532.063354492,1588.7
532.348571777,1512.525
532.633666992,1544.4
532.918762207,1634.925
533.203857422,1748.3
533.488891602,1765.1
533.773925781,1703.125
534.059020996,1679.225
534.343933105,1712.425
534.628967285,1676.15
534.91394043,1703.75
535.198852539,1703.75
535.483703613,1685.825
535.768676758,1614.5
536.053527832,1615.9
536.338317871,1577.9
536.62322998,1496.125
536.90802002,1471.5
537.192810059,1501.05
537.477539062,1582.5
537.762329102,1638.475
538.047058105,1676.85
538.331726074,1718.725
538.616455078,1701.225
538.901123047,1680.4
539.18572998,1733.525
539.470397949,1736.725
539.755004883,1724.75
540.039550781,1687.1
540.32409668,1629.125
540.608703613,1670.975
540.893188477,1792.975
541.17767334,1807.975
541.462158203,1811.625
541.746643066,1742.375
542.031066895,1794.75
542.315429688,1852.6
542.59979248,1849.325
542.884216309,1822.975
543.168579102,1808.8
543.452941895,1826.25
543.737243652,1885.625
544.021484375,1947.825
544.305725098,1934.8
544.590026855,1922.925
544.874267578,1918.85
545.158447266,2015.1
545.442626953,1913.7
545.726806641,1779.25
546.010925293,1823.95
546.29510498,1858.725
546.579162598,1855.95
546.863220215,1890.125
547.147277832,1972.125
547.431335449,2064.55
547.715332031,2134.45
547.999328613,2272.3
548.283325195,2288.925
548.567260742,2103.325
548.851135254,2063.9
549.135070801,2033.475
549.419006348,1912.2
549.702819824,2041.075
549.986755371,2125.1
550.270507812,2089.325
550.554321289,2143.45
550.83807373,2148.35
551.121826172,2084.575
551.405517578,2106.6
551.689331055,2244.025
551.973022461,2535.0
552.256652832,2585.4
552.540344238,2487.975
552.823974609,2447.6
553.107543945,2430.775
553.391174316,2507.05
553.674743652,2561.45
553.958251953,2574.975
554.241821289,2576.575
554.525268555,2517.425
554.808776855,2504.875
555.092285156,2735.0
555.375671387,2825.7
555.659057617,2808.525
555.942504883,2852.075
556.225891113,2909.425
556.509216309,2855.475
556.792541504,2740.225
557.075866699,2840.4
557.359130859,2884.75
557.64239502,2873.8
557.92565918,2977.125
558.208862305,2945.575
558.49206543,2876.05
558.77532959,2890.35
559.058410645,2954.05
559.341552734,2935.025
559.624694824,2984.775
559.907775879,3076.7
560.190856934,3229.7
560.473937988,3216.425
560.756896973,3266.775
561.039978027,3289.85
561.322937012,3245.625
561.605895996,3232.425
561.88885498,3190.1
562.171813965,3185.775
562.454650879,3188.575
562.737548828,3234.2
563.020446777,3322.25
563.303283691,3339.325
563.58605957,3377.225
563.868896484,3398.525
564.151672363,3447.425
564.434387207,3492.825
564.717163086,3452.1
564.99987793,3498.025
565.282531738,3581.375
565.565185547,3500.675
565.847839355,3504.625
566.130432129,3645.15
566.413085938,3625.425
566.695678711,3637.7
566.978149414,3774.525
567.260681152,3953.5
567.543273926,4025.0
567.825744629,3922.45
568.108154297,3962.45
568.390686035,4113.3
568.673095703,4232.7
568.955505371,4317.1
569.237854004,4340.175
569.520202637,4667.9
569.802490234,4901.425
570.084838867,4881.275
570.367126465,4688.7
570.649414062,4716.95
570.93170166,5131.575
571.213928223,5227.45
571.496154785,4930.95
571.778381348,5214.975
572.06048584,5493.3
572.342590332,4957.325
572.624755859,4554.7
572.906860352,4622.925
573.188903809,5417.975
573.470947266,5724.475
573.752990723,5421.65
574.03503418,5559.675
574.317016602,6007.75
574.598937988,5747.05
574.88092041,5595.25
575.162841797,5826.15
575.444763184,5379.075
575.726623535,5093.8
576.008483887,5145.725
576.290344238,5604.2
576.572143555,5847.9
576.853881836,5905.525
577.135681152,5808.7
577.417419434,5871.35
577.699157715,6885.95
577.980895996,7087.75
578.262573242,6312.7
578.544128418,5735.875
578.825866699,5668.775
579.107421875,5285.875
579.388977051,5503.25
579.670593262,5973.825
579.952148438,5796.875
580.233642578,5908.55
580.515197754,6037.175
580.796691895,5673.2
581.078125,5908.325
581.359619141,7623.2
581.640991211,7739.925
581.922363281,6686.35
582.203796387,6748.775
582.485107422,6343.575
582.766418457,5885.55
583.047790527,5692.05
583.329040527,5553.6
583.610290527,5370.65
583.891540527,5524.075
584.172790527,5879.45
584.453918457,5898.65
584.735107422,5985.525
585.016235352,6481.825
585.297363281,6453.475
585.578552246,6235.325
585.859619141,6153.7
586.140625,5889.0
586.421630859,5726.25
586.702697754,5767.65
586.983642578,6056.525
587.264648438,6229.675
587.545654297,6169.325
587.826477051,6099.875
588.107421875,5889.475
588.388305664,5917.825
588.669189453,6030.6
588.950012207,5854.55
589.230834961,5749.925
589.511657715,5851.225
589.792358398,5957.0
590.073120117,5970.575
590.353881836,5911.6
590.63458252,5941.65
590.915283203,5894.0
591.195922852,5900.925
591.4765625,5924.725
591.757202148,5985.85
592.037780762,5983.375
592.31829834,5955.425
592.598937988,6200.875
592.879394531,6412.75
593.159912109,6301.425
593.440429688,6249.525
593.720825195,6207.025
594.001281738,6174.7
594.281677246,6078.2
594.562072754,6095.9
594.842407227,6240.425
595.122802734,6245.025
595.403137207,6226.6
595.683410645,6197.725
595.963623047,6183.05
596.243896484,6115.25
596.524169922,6143.025
596.804382324,6160.1
597.084533691,6168.625
597.364746094,6234.925
597.644836426,6264.775
597.924987793,6233.5
598.205078125,6202.5
598.485107422,6220.9
598.765197754,6355.175
599.045227051,6422.225
599.325195312,6302.8
599.605224609,6251.15
599.885192871,6307.375
600.165100098,6364.075
600.445007324,6286.125
600.724914551,6273.475
601.004760742,6297.025
601.284667969,6324.325
601.56451416,6274.8
601.844238281,6289.95
602.124084473,6284.325
602.403808594,6287.05
602.683532715,6314.15
602.963256836,6321.3
603.242919922,6371.925
603.522583008,6414.75
603.802246094,6382.075
604.081848145,6329.175
604.36138916,6337.325
604.641052246,6374.825
604.920532227,6325.675
605.200073242,6366.675
605.479614258,6378.5
605.759094238,6390.825
606.038574219,6396.85
606.317932129,6338.075
606.597412109,6349.525
606.87677002,6361.4
607.15612793,6377.1
607.435546875,6388.4
607.714782715,6396.775
607.99407959,6327.875
608.273376465,6321.95
608.552612305,6364.05
608.831848145,6368.4
609.111083984,6372.925
609.390258789,6346.875
609.669433594,6366.15
609.948608398,6435.475
610.227722168,6399.2
610.506713867,6327.075
610.785888672,6356.25
611.064880371,6321.8
611.34387207,6345.4
611.622924805,6357.275
611.901916504,6340.9
612.180847168,6294.875
612.459777832,6293.125
612.738647461,6292.3
613.01751709,6279.9
613.296447754,6206.475
613.575317383,6187.875
613.854064941,6105.375
614.132873535,6038.375
614.411621094,5961.0
614.690368652,5922.575
614.969177246,5838.125
615.247802734,5741.475
615.526489258,5725.775
615.805175781,5593.1
616.08380127,5480.15
616.362365723,5379.225
616.640991211,5332.325
616.919555664,5272.375
617.198059082,5411.85
617.4765625,5706.625
617.755126953,5878.175
618.033569336,5907.65
618.311950684,5901.775
618.590454102,5850.75
618.868774414,5866.75
619.147155762,5882.925
619.425598145,5841.8
619.703857422,5852.375
619.982177734,5882.075
620.260498047,5866.5
620.538757324,5842.875
620.816955566,5795.5
621.095214844,5771.95
621.373413086,5778.775
621.651550293,5861.3
621.929748535,5873.775
622.207824707,5857.125
622.485900879,5881.55
622.764038086,5888.225
623.042053223,5909.525
623.320007324,5941.825
623.598083496,5946.1
623.876037598,5904.25
624.153991699,5944.65
624.432006836,5977.75
624.709838867,5985.075
624.987731934,5961.55
625.265563965,5943.5
625.543395996,5993.2
625.821228027,6035.125
626.098999023,6025.8
626.376831055,6058.85
626.654541016,6099.3
626.932250977,6124.075
627.209960938,6197.3
627.487670898,6191.15
627.765319824,6230.65
628.04296875,6212.075
628.320495605,6219.8
628.598083496,6236.35
628.875671387,6261.45
629.153259277,6307.6
629.430725098,6359.375
629.708251953,6354.425
629.985656738,6386.025
630.263122559,6439.975
630.540588379,6456.8
630.817932129,6482.625
631.095275879,6500.9
631.372680664,6566.55
631.649963379,6613.975
631.927246094,6654.675
632.204589844,6695.55
632.481811523,6749.8
632.759033203,6852.625
633.036254883,6883.275
633.313415527,6953.95
633.590576172,7023.7
633.867736816,7152.875
634.144836426,7216.925
634.421875,7263.2
634.698913574,7323.25
634.976013184,7372.825
635.252990723,7449.8
635.529968262,7496.725
635.807006836,7573.975
636.08392334,7561.075
636.360839844,7456.9
636.637756348,7345.625
636.914611816,7310.6
637.191467285,7320.075
637.468261719,7378.1
637.745056152,7335.65
638.021789551,7358.375
638.298583984,7388.95
638.575317383,7416.625
638.851989746,7404.2
639.12878418,7420.975
639.405395508,7400.2
639.682006836,7451.725
639.958618164,7442.45
640.235229492,7408.375
640.511779785,7485.5
640.788330078,7472.575
641.064880371,7471.15
641.341308594,7453.5
641.617797852,7461.625
641.894226074,7456.2
642.170654297,7477.625
642.44708252,7456.925
642.723388672,7465.6
642.999755859,7480.625
643.276123047,7474.075
643.552429199,7450.375
643.828674316,7459.4
644.104919434,7434.8
644.381164551,7426.55
644.657348633,7432.575
644.933532715,7376.475
645.209716797,7390.175
645.485839844,7392.825
645.761901855,7394.025
646.038024902,7349.425
646.314086914,7418.175
646.590087891,7394.175
646.866149902,7427.875
647.142150879,7385.925
647.41809082,7379.6
647.694030762,7394.15
647.969970703,7360.1
648.245788574,7369.275
648.521728516,7371.4
648.797546387,7337.95
649.073303223,7384.8
649.349182129,7360.65
649.624938965,7335.525
649.900634766,7349.975
650.176391602,7350.025
650.452087402,7345.475
650.727783203,7344.625
651.003479004,7335.025
651.279052734,7338.375
651.554626465,7333.05
651.83026123,7330.65
652.105773926,7383.05
652.381286621,7311.75
652.656860352,7333.5
652.932312012,7345.05
653.207763672,7333.5
653.483215332,7367.375
653.758605957,7357.825
654.033935547,7370.775
654.309326172,7356.475
654.584716797,7358.55
654.859985352,7362.1
655.135253906,7402.775
655.410583496,7439.9
655.685791016,8567.225
655.9609375,13268.475
656.236206055,12963.375
656.511291504,8628.1
656.786437988,7612.3
657.061645508,7491.9
657.336669922,7453.3
657.611694336,7505.725
657.886779785,7529.175
658.161804199,7527.975
658.436828613,7467.15
658.711791992,7478.95
658.986755371,7476.65
659.261657715,7495.05
659.536621094,7547.775
659.811401367,7514.075
660.086303711,7558.025
660.36114502,7561.5
660.635864258,7564.475
660.910644531,7600.025
661.185424805,7603.6
661.460205078,7634.5
661.734863281,7627.775
662.009521484,7651.4
662.284179688,7646.975
662.558776855,7702.575
662.833435059,7721.375
663.108032227,7720.275
663.382568359,7710.2
663.657043457,7769.675
663.93157959,7812.025
664.206054688,7798.375
664.48046875,7835.625
664.755004883,7835.225
665.02935791,7872.175
665.303710938,7901.15
665.578125,7932.975
665.852416992,7911.625
666.126708984,7899.325
666.401062012,7910.525
666.675292969,7970.3
666.949462891,7971.75
667.223754883,7968.9
667.497924805,8004.025
667.772094727,8017.2
668.046264648,7996.95
668.3203125,8051.475
668.594421387,8090.15
668.868469238,8072.675
669.14251709,8118.8
669.416503906,8134.075
669.690551758,8138.25
669.964477539,8184.35
670.23840332,8168.425
670.512329102,8180.25
670.786254883,8150.7
671.060058594,8228.05
671.333984375,8251.675
671.607788086,8269.5
671.881530762,8269.55
672.155334473,8296.125
672.429077148,8307.55
672.702758789,8345.075
672.97644043,8305.975
673.25012207,8313.975
673.523742676,8327.825
673.797302246,8341.85
674.070922852,8402.6
674.344482422,8414.25
674.618041992,8409.55
674.891601562,8422.325
675.165100098,8465.375
675.438476562,8456.175
675.711975098,8454.625
675.985412598,8459.6
676.258789062,8489.8
676.532165527,8510.8
676.805480957,8514.75
677.078796387,8507.625
677.352111816,8551.625
677.625366211,8543.5
677.898620605,8524.05
678.171875,8569.2
678.445007324,8559.6
678.718200684,8600.025
678.991394043,8587.2
679.264404297,8602.525
679.537536621,8619.95
679.81060791,8655.775
680.083679199,8656.925
680.356689453,8679.375
680.629699707,8680.2
680.902648926,8646.925
681.175598145,8697.625
681.448547363,8750.625
681.721435547,8693.3
681.99420166,8716.425
682.267150879,8677.675
682.539916992,8756.975
682.812744141,8760.1
683.085510254,8754.825
683.358215332,8776.275
683.63092041,8766.95
683.903625488,8785.625
684.176330566,8758.175
684.448913574,8732.9
684.721557617,8739.275
684.99420166,8840.9
685.266662598,8821.875
685.539245605,8821.175
685.811767578,8894.775
686.084289551,8860.7
686.356689453,8861.525
686.629150391,8901.825
686.901550293,8941.25
687.17401123,8938.5
687.446350098,9007.975
687.718688965,8995.225
687.990966797,9046.05
688.263305664,9054.95
688.535522461,9016.475
688.807739258,9054.725
689.079956055,9106.75
689.352172852,9137.45
689.624328613,9116.5
689.896484375,9154.25
690.168518066,9126.65
690.440612793,9205.2
690.71270752,9192.95
690.984741211,9214.175
691.256713867,9281.925
691.528747559,9247.6
691.800720215,9268.325
692.072631836,9261.575
692.344543457,9319.7
692.616394043,9308.8
692.888244629,9334.8
693.160095215,9370.825
693.431945801,9406.8
693.703674316,9386.025
693.975463867,9360.85
694.247131348,9437.225
694.518859863,9397.8
694.790588379,9455.825
695.062255859,9466.45
695.33380127,9475.225
695.60546875,9466.075
695.87701416,9487.25
696.148498535,9527.3
696.42010498,9560.95
696.691589355,9568.05
696.96307373,9586.575
697.234558105,9641.925
697.50592041,9638.75
697.777282715,9666.45
698.048706055,9664.4
698.320068359,9723.7
698.591308594,9693.125
698.862670898,9679.825
699.133972168,9706.575
699.405151367,9722.95
699.676391602,9769.275
699.947570801,9753.825
700.21875,9755.775
700.489868164,9749.175
700.761047363,9803.175
701.032104492,9837.575
701.303100586,9781.625
701.57421875,9872.15
701.845214844,9852.65
702.116149902,9905.925
702.387207031,9868.225
702.65814209,9888.25
702.928955078,9947.375
703.199951172,9904.875
703.47076416,9875.75
703.741577148,9873.275
704.012451172,9912.075
704.28314209,9892.15
704.553955078,9927.475
704.824707031,9988.875
705.095397949,10001.575
705.366027832,10011.675
705.63671875,10021.8
705.907348633,10001.75
706.17791748,10037.125
706.448486328,10048.1
706.719055176,10085.15
706.989562988,10104.45
707.260131836,10119.5
707.530517578,10132.525
707.800964355,10122.725
708.071411133,10093.6
708.341796875,10109.775
708.612182617,10099.5
708.882446289,10085.55
709.152893066,10080.2
709.423156738,10139.1
709.693359375,10077.85
709.963623047,10149.35
710.233825684,10157.2
710.503967285,10124.9
710.774169922,10185.95
711.044311523,10134.675
711.31439209,10150.5
711.584533691,10150.675
711.854553223,10148.225
712.124572754,10179.35
712.39465332,10128.85
712.664611816,10196.65
712.934509277,10244.225
713.204467773,10172.55
713.474365234,10259.175
713.74420166,10216.675
714.014099121,10232.25
714.283874512,10225.2
714.553710938,10278.075
714.823486328,10260.55
715.093200684,10260.675
715.362915039,10271.0
715.632629395,10279.45
715.902282715,10266.6
716.171875,10277.05
716.441589355,10259.3
716.711181641,10245.9
716.980712891,10237.825
717.250244141,10255.4
717.519775391,10255.425
717.78918457,10281.15
718.058654785,10331.7
718.328125,10344.825
718.597473145,10307.275
718.866882324,10287.025
719.136230469,10340.85
719.405578613,10344.675
719.674865723,10355.25
719.944152832,10335.4
720.213439941,10294.925
720.48260498,10353.45
720.75177002,10378.0
721.020996094,10362.375
721.290100098,10340.225
721.559204102,10342.0
721.828308105,10387.225
722.097351074,10323.85
722.366455078,10307.1
722.635437012,10337.8
722.904418945,10307.925
723.173400879,10377.6
723.442321777,10396.925
723.711181641,10343.225
723.980102539,10390.2
724.248962402,10351.65
724.51776123,10347.825
724.786560059,10386.275
725.055358887,10392.775
725.324035645,10395.9
725.592834473,10401.225
725.86151123,10391.9
726.130187988,10411.95
726.398803711,10350.9
726.667419434,10414.6
726.935974121,10375.8
727.204528809,10337.775
727.473083496,10352.05
727.741638184,10288.85
728.010070801,10274.825
728.278564453,10279.3
728.546936035,10302.475
728.815368652,10205.575
729.08380127,10134.1
729.352111816,10089.725
729.620361328,10005.85
729.88873291,10083.95
730.156982422,10137.975
730.425231934,10135.1
730.693481445,10113.875
730.961669922,10206.925
731.229797363,10272.175
731.49798584,10271.05
731.766113281,10341.875
732.034118652,10419.45
732.302246094,10458.875
732.570251465,10488.4
732.838256836,10530.65
733.106262207,10633.525
733.374145508,10648.0
733.642089844,10691.75
733.909973145,10795.15
734.177856445,10849.9
734.445678711,10947.275
734.713562012,11106.3
734.981323242,11080.75
735.249084473,11131.75
735.516845703,11323.925
735.784545898,11412.4
736.052185059,11460.65
736.319885254,11571.55
736.587524414,11611.025
736.855102539,11635.25
737.122619629,11850.325
737.390197754,11871.725
737.657714844,11984.6
737.925170898,12070.125
738.192749023,12190.175
738.460144043,12250.975
738.727539062,12268.2
738.994995117,12401.5
739.262329102,12481.05
739.529663086,12640.1
739.79699707,12644.275
740.06427002,12738.65
740.331481934,12840.925
740.598754883,12896.95
740.865905762,12903.9
741.133056641,13129.275
741.40032959,13148.825
741.667358398,13239.15
741.934448242,13287.95
742.201599121,13294.075
742.468566895,13405.475
742.735534668,13456.75
743.002563477,13487.775
743.26953125,13465.2
743.536437988,13542.15
743.803405762,13688.0
744.0703125,13633.55
744.337097168,13768.775
744.604003906,13647.875
744.870727539,13731.175
745.137512207,13797.875
745.40423584,13817.2
745.670959473,13781.175
745.93762207,13832.15
746.204284668,13846.125
746.470947266,13884.875
746.737548828,13876.75
747.004089355,13928.45
747.270751953,13946.575
747.53717041,13944.9
747.803710938,13871.025
748.070251465,13885.1
748.336608887,13886.775
748.603027344,13845.55
748.869445801,13864.75
749.135803223,13857.875
749.402099609,13863.6
749.668457031,13873.025
749.934753418,13810.1
750.20098877,13767.875
750.467224121,13840.625
750.733459473,13810.575
750.999572754,13803.1
751.26574707,13699.525
751.531860352,13758.35
751.797912598,13711.825
752.064025879,13656.075
752.330078125,13647.1
752.596069336,13614.85
752.862060547,13565.675
753.127990723,13586.55
753.393920898,13573.5
753.659912109,13499.325
753.925720215,13516.525
754.19152832,13455.925
754.457397461,13405.075
754.723144531,13404.65
754.988952637,13343.15
755.254699707,13392.55
755.520385742,13379.725
755.786071777,13375.075
756.051696777,13345.575
756.317382812,13292.1
756.582946777,13203.925
756.848510742,13266.075
757.114074707,13214.8
757.379577637,13205.525
757.645080566,13285.325
757.910583496,13172.4
758.175964355,13123.65
758.441345215,13140.325
758.706848145,12942.4
758.972106934,12934.7
759.237426758,12999.75
759.502807617,13029.8
759.768005371,13020.675
760.03326416,12960.275
760.298522949,12886.85
760.563659668,12941.575
760.828857422,12876.575
761.093994141,12892.175
761.359130859,12844.475
761.624206543,12769.925
761.889282227,12708.925
762.15423584,12684.775
762.419250488,12713.1
762.684265137,12650.45
762.949157715,12622.45
763.214050293,12590.75
763.479003906,12607.65
763.743835449,12606.2
764.008666992,12546.975
764.2734375,12529.35
764.538208008,12571.15
764.802978516,12613.3
765.067687988,12550.025
765.332397461,12566.5
765.597045898,12508.075
765.861694336,12463.125
766.126342773,12443.7
766.390930176,12402.15
766.655395508,12346.45
766.920043945,12298.425
767.184509277,12300.9
767.448974609,12298.6
767.713439941,12281.25
767.977783203,12250.3
768.2421875,12295.225
768.506591797,12244.725
768.770874023,12344.875
769.03515625,12300.0
769.299499512,12240.75
769.563720703,12249.85
769.827941895,12150.525
770.092163086,12141.25
770.356323242,12107.15
770.620483398,12160.975
770.88458252,12177.625
771.148681641,12163.6
771.412719727,12089.775
771.676757812,12143.45
771.940734863,12063.7
772.204711914,12039.175
772.468688965,12028.175
772.73260498,12028.125
772.996459961,12043.7
773.260314941,10784.9
773.524169922,1370.075
773.787963867,160.3
774.051696777,121.075
774.315551758,122.175
774.579223633,122.125
774.842895508,121.875
775.106567383,120.625
775.370239258,117.675
775.633789062,124.375
775.897399902,128.0
776.160949707,119.35
776.424499512,121.0
776.687988281,124.625
776.951477051,126.85
777.214904785,120.25
777.47833252,121.425
