191.299911499,102.05
191.603515625,102.475
191.907119751,98.325
192.210693359,106.2
192.514251709,100.85
192.817810059,104.8
193.121368408,104.925
193.42489624,104.325
193.728408813,99.7
194.031936646,98.625
194.33543396,96.075
194.638916016,112.475
194.94241333,98.175
195.245880127,98.175
195.549331665,96.775
195.852767944,101.35
196.156204224,196.875
196.459625244,190.55
196.763015747,190.175
197.066436768,194.95
197.369812012,191.425
197.673187256,191.625
197.9765625,185.0
198.279922485,194.15
198.583251953,184.375
198.886581421,192.1
199.18989563,197.525
199.493209839,194.325
199.79649353,182.775
200.09979248,196.725
200.403076172,189.35
200.706314087,191.5
201.009567261,194.0
201.312820435,190.775
201.616027832,183.6
201.919235229,177.85
202.222457886,185.25
202.525634766,188.225
202.828826904,181.15
203.132003784,181.425
203.435150146,184.075
203.738296509,180.575
204.041412354,181.725
204.344558716,184.8
204.647659302,184.2
204.950759888,187.325
205.253845215,186.85
205.556930542,185.2
205.859985352,184.375
206.163024902,184.2
206.466079712,187.775
206.769104004,197.75
207.072113037,184.175
207.375137329,186.975
207.678131104,187.025
207.981109619,188.825
208.284088135,187.05
208.587036133,190.1
208.889984131,188.475
209.19291687,191.625
209.495849609,193.95
209.798751831,192.325
210.101654053,189.35
210.404556274,190.175
210.707427979,193.0
211.010269165,199.675
211.31312561,196.325
211.615982056,198.05
211.918807983,196.05
212.221618652,199.45
212.524429321,193.65
212.827224731,203.5
213.130004883,195.725
213.432769775,199.875
213.735534668,198.125
214.038269043,203.15
214.341003418,199.875
214.643737793,205.75
214.946456909,206.375
215.249145508,209.075
215.551834106,209.1
215.854507446,211.425
216.157165527,205.6
216.45980835,210.8
216.762451172,213.575
217.065078735,217.125
217.36769104,213.375
217.670303345,221.325
217.972885132,224.05
218.275466919,226.2
218.578048706,219.275
218.880599976,229.475
219.183120728,227.15
219.485656738,227.55
219.788192749,244.175
220.090682983,255.425
220.393188477,273.475
220.695663452,300.675
220.998138428,327.2
221.300582886,364.725
221.603042603,388.475
221.905487061,439.05
222.207901001,498.9
222.510299683,561.8
222.812728882,625.625
223.115097046,707.1
223.41746521,776.85
223.719848633,859.325
224.022171021,942.775
224.324508667,1037.5
224.626846313,1133.825
224.929168701,1221.975
225.231460571,1338.35
225.533737183,1410.825
225.836013794,1517.7
226.138290405,1608.975
226.440536499,1708.7
226.742767334,1779.375
227.044998169,1860.375
227.347213745,1955.0
227.649429321,2031.425
227.951629639,2087.85
228.253799438,2143.2
228.555953979,2207.15
228.858123779,2257.725
229.160263062,2297.325
229.462371826,2347.125
229.764511108,2396.45
230.066619873,2429.75
230.36869812,2475.85
230.670776367,2490.775
230.972854614,2553.2
231.274902344,2600.0
231.576950073,2662.95
231.878967285,2688.05
232.180999756,2750.15
232.48298645,2796.425
232.784988403,2863.125
233.086975098,2885.025
233.388946533,2943.625
233.69090271,2988.95
233.992858887,3052.0
234.294769287,3056.15
234.596694946,3120.025
234.898605347,3171.4
235.200500488,3187.925
235.502380371,3231.175
235.804244995,3277.375
236.106109619,3278.375
236.407958984,3310.025
236.709777832,3330.125
237.011581421,3379.925
237.313400269,3400.475
237.615203857,3402.6
237.916976929,3429.85
238.21875,3449.575
238.520507812,3475.55
238.822250366,3499.6
239.12399292,3510.725
239.425704956,3550.875
239.727401733,3554.225
240.02911377,3585.05
240.330780029,3583.925
240.632446289,3603.025
240.93409729,3626.475
241.23576355,3679.225
241.537384033,3705.55
241.839004517,3745.125
242.140594482,3777.25
242.442199707,3804.725
242.743774414,3842.4
243.045333862,3892.65
243.346923828,3916.4
243.648452759,3976.6
243.949966431,4012.4
244.251495361,4067.925
244.552993774,4114.675
244.854492188,4117.15
245.155975342,4159.95
245.457443237,4199.7
245.758880615,4251.5
246.060333252,4292.075
246.36177063,4298.075
246.66317749,4338.725
246.964569092,4368.25
247.265945435,4419.5
247.567337036,4448.025
247.86869812,4510.25
248.170059204,4549.975
248.471389771,4615.95
248.772705078,4706.025
249.074035645,4732.575
249.375335693,4829.775
249.676620483,4882.0
249.977890015,4971.225
250.279159546,5061.95
250.58039856,5166.55
250.881637573,5234.225
251.182876587,5334.375
251.484069824,5452.55
251.785263062,5513.075
252.086456299,5682.525
252.387619019,5739.35
252.688781738,5821.375
252.989929199,5951.725
253.291061401,6033.425
253.592178345,6170.125
253.893280029,6250.575
254.194366455,6331.75
254.49546814,6399.1
254.796524048,6463.825
255.097579956,6558.225
255.398620605,6583.525
255.699645996,6696.2
256.000640869,6719.925
256.30166626,6747.225
256.602661133,6798.35
256.903656006,6802.825
257.204589844,6842.1
257.505523682,6826.35
257.80645752,6876.225
258.107391357,6853.6
258.408294678,6856.45
258.709228516,6801.4
259.010070801,6764.25
259.310943604,6759.95
259.611846924,6729.6
259.912658691,6662.775
260.213500977,6636.0
260.514343262,6603.0
260.815124512,6505.075
261.115936279,6470.775
261.416717529,6433.2
261.717468262,6411.325
262.018218994,6355.175
262.318969727,6333.875
262.619689941,6343.75
262.920410156,6398.95
263.221130371,6417.3
263.521789551,6447.85
263.822479248,6487.525
264.123138428,6503.05
264.42376709,6519.7
264.72442627,6506.0
265.025054932,6514.65
265.325622559,6497.325
265.626251221,6471.9
265.926818848,6444.7
266.227386475,6368.95
266.527954102,6320.425
266.828460693,6324.55
267.12902832,6211.1
267.429534912,6146.1
267.730010986,6090.475
268.030517578,6015.15
268.330993652,5985.7
268.631439209,5928.85
268.931915283,5891.325
269.232299805,5850.125
269.532745361,5789.925
269.8331604,5736.575
270.133544922,5714.8
270.433929443,5696.775
270.734313965,5642.85
271.034637451,5655.95
271.334991455,5618.625
271.635314941,5650.05
271.935638428,5642.925
272.235931396,5676.6
272.536254883,5690.35
272.836486816,5736.925
273.136749268,5783.325
273.437011719,5898.85
273.737213135,5940.75
274.037445068,6013.575
274.337677002,6099.375
274.6378479,6145.7
274.938049316,6272.35
275.238220215,6348.775
275.538360596,6460.675
275.838500977,6523.725
276.138641357,6652.725
276.438751221,6694.0
276.738830566,6766.975
277.03894043,6813.0
277.338989258,6914.325
277.639038086,6989.55
277.939056396,7045.6
278.239105225,7076.15
278.539093018,7166.375
278.839141846,7189.025
279.139129639,7246.35
279.439086914,7302.6
279.739044189,7333.825
280.039001465,7413.4
280.338928223,7424.525
280.63885498,7469.55
280.938781738,7518.825
281.238647461,7541.05
281.538513184,7509.225
281.838409424,7555.55
282.138244629,7590.075
282.438079834,7574.925
282.737945557,7608.05
283.037719727,7621.375
283.337524414,7636.65
283.637298584,7644.525
283.937072754,7650.125
284.236816406,7667.425
284.536560059,7606.8
284.836303711,7623.325
285.136016846,7690.175
285.43572998,7653.125
285.735412598,7666.95
286.035064697,7643.575
286.334747314,7668.7
286.634368896,7672.1
286.933990479,7607.675
287.233642578,7530.975
287.533203125,7550.075
287.832824707,7490.175
288.132385254,7362.475
288.431945801,7256.275
288.731506348,7120.475
289.031036377,6986.45
289.330566406,6841.1
289.630065918,6835.4
289.92956543,6795.725
290.229034424,6880.525
290.528503418,7028.55
290.827941895,7182.375
291.127380371,7318.175
291.42678833,7405.15
291.726226807,7531.0
292.025604248,7527.425
292.324981689,7576.525
292.624359131,7586.35
292.923736572,7626.675
293.223052979,7642.35
293.522369385,7601.5
293.821685791,7583.375
294.12097168,7548.075
294.420257568,7500.55
294.719543457,7493.3
295.018768311,7473.15
295.318023682,7408.75
295.617248535,7347.675
295.916442871,7313.425
296.215667725,7222.375
296.514862061,7129.125
296.813995361,6903.375
297.11315918,6711.6
297.412322998,6587.9
297.711425781,6549.1
298.010559082,6712.45
298.309631348,6893.225
298.608734131,7085.95
298.907806396,7276.725
299.206848145,7410.45
299.505889893,7461.2
299.804901123,7590.275
300.103912354,7618.4
300.402954102,7701.95
300.701904297,7754.425
301.00088501,7827.35
301.299835205,7873.275
301.5987854,7895.925
301.897735596,7997.0
302.196624756,8021.575
302.495513916,8087.875
302.794403076,8144.025
303.093292236,8168.75
303.392120361,8266.45
303.690979004,8302.325
303.989837646,8368.775
304.288604736,8404.775
304.587402344,8369.65
304.886199951,8453.725
305.184967041,8471.65
305.483734131,8536.225
305.782501221,8568.125
306.081176758,8561.45
306.37991333,8606.35
306.678619385,8602.05
306.977294922,8621.3
307.275970459,8609.35
307.574645996,8682.35
307.873260498,8632.275
308.171875,8631.3
308.470489502,8646.25
308.769104004,8569.85
309.067687988,8580.45
309.366241455,8576.075
309.664794922,8542.575
309.963348389,8548.075
310.261871338,8561.55
310.560394287,8560.175
310.858856201,8580.775
311.157348633,8615.175
311.455810547,8616.85
311.754272461,8629.725
312.052703857,8704.625
312.351135254,8714.15
312.649536133,8698.3
312.947937012,8700.025
313.246307373,8718.525
313.544647217,8735.8
313.843017578,8682.55
314.141387939,8644.85
314.439697266,8705.775
314.738006592,8597.35
315.036315918,8577.15
315.334564209,8477.175
315.6328125,8421.55
315.931091309,8358.825
316.229309082,8241.325
316.527526855,8100.825
316.825744629,8099.175
317.123901367,7992.65
317.422088623,7935.4
317.720245361,7940.825
318.0184021,7964.475
318.316497803,7999.9
318.614654541,8040.2
318.912750244,8113.65
319.21081543,8123.675
319.50894165,8164.0
319.806945801,8119.675
320.104980469,8106.4
320.403045654,8132.575
320.701049805,8114.075
320.999023438,8097.625
321.297027588,8034.35
321.595001221,8010.4
321.892913818,7984.5
322.190887451,7925.2
322.488830566,7864.975
322.786712646,7838.85
323.084625244,7738.825
323.382507324,7759.75
323.680358887,7654.575
323.978210449,7575.375
324.276062012,7526.9
324.573852539,7489.425
324.871643066,7435.3
325.169464111,7355.925
325.467224121,7299.325
325.764984131,7247.475
326.062744141,7176.9
326.360473633,7097.825
326.658203125,7036.175
326.955871582,6977.625
327.253570557,6914.6
327.551239014,6846.625
327.848907471,6804.775
328.146514893,6726.025
328.444152832,6651.775
328.741790771,6628.4
329.039367676,6552.775
329.336914062,6491.1
329.634521484,6427.475
329.932067871,6391.975
330.229553223,6330.825
330.527160645,6265.35
330.824615479,6242.15
331.12210083,6177.65
331.419586182,6057.225
331.717041016,6012.825
332.014465332,5923.15
332.311920166,5898.225
332.609313965,5842.175
332.906707764,5825.35
333.204101562,5821.85
333.501495361,5827.575
333.798828125,5839.025
334.096160889,5899.45
334.39352417,5960.8
334.690795898,5987.875
334.988098145,6074.95
335.285400391,6111.675
335.582641602,6097.9
335.879882812,6164.125
336.177124023,6142.375
336.474334717,6230.95
336.77154541,6216.625
337.068725586,6241.975
337.365905762,6276.375
337.66305542,6269.425
337.960205078,6296.925
338.257324219,6301.375
338.554443359,6300.05
338.8515625,6327.15
339.148590088,6310.2
339.445648193,6337.95
339.742736816,6282.825
340.039764404,6290.75
340.336761475,6249.325
340.63381958,6212.25
340.930755615,6170.425
341.227722168,6117.1
341.524688721,6000.9
341.821624756,5997.875
342.118560791,5994.375
342.415496826,6086.475
342.712402344,6220.65
343.009246826,6327.95
343.306121826,6476.05
343.602966309,6529.6
343.899810791,6607.575
344.196624756,6671.8
344.493438721,6690.2
344.79019165,6772.9
345.086975098,6800.825
345.383758545,6853.175
345.680480957,6816.325
345.977203369,6815.0
346.273956299,6863.875
346.570617676,6858.35
346.86730957,6869.525
347.163970947,6856.375
347.460601807,6912.825
347.757232666,6918.875
348.053894043,6906.65
348.350463867,6827.45
348.647064209,6831.725
348.943634033,6816.075
349.24017334,6830.075
349.536712646,6772.825
349.833251953,6788.925
350.129760742,6736.4
350.426208496,6736.375
350.722747803,6683.4
351.019195557,6704.4
351.315612793,6665.925
351.612060547,6612.475
351.908508301,6582.725
352.204864502,6533.575
352.501281738,6491.525
352.797637939,6411.7
353.093963623,6330.425
353.390319824,6260.225
353.686645508,6198.05
353.982940674,6117.475
354.27923584,6094.25
354.575531006,6031.425
354.871765137,6037.125
355.167999268,6006.35
355.464233398,6000.775
355.760437012,6022.375
356.056640625,6018.45
356.352813721,6030.25
356.648956299,6024.025
356.945129395,6043.85
357.241271973,6039.725
357.537384033,6055.1
357.833496094,6005.85
358.129577637,5999.725
358.425628662,5967.825
358.721679688,5939.05
359.017730713,5928.25
359.313720703,5868.375
359.609710693,5834.2
359.905761719,5801.3
360.201721191,5745.95
360.497650146,5689.2
360.793609619,5683.075
361.089538574,5610.125
361.385437012,5533.5
361.681365967,5484.45
361.977233887,5452.45
362.273071289,5399.3
362.568908691,5278.65
362.864746094,5137.775
363.160552979,5045.15
363.456359863,4875.25
363.752166748,4738.925
364.047912598,4665.025
364.343658447,4615.4
364.639434814,4654.45
364.935119629,4705.275
365.230834961,4743.45
365.526550293,4779.975
365.822174072,4799.0
366.117858887,4825.3
366.413482666,4854.6
366.709075928,4881.225
367.004730225,4774.65
367.300292969,4797.125
367.595855713,4831.175
367.891448975,4722.6
368.186981201,4627.875
368.482513428,4576.925
368.778015137,4581.6
369.073547363,4535.65
369.36895752,4534.375
369.664428711,4452.1
369.95993042,4351.3
370.255310059,4286.95
370.550720215,4264.725
370.846160889,4239.65
371.14151001,4201.175
371.436859131,4187.6
371.73223877,4169.9
372.027557373,4130.325
372.322875977,4074.725
372.618164062,4037.3
372.913482666,3990.925
373.208709717,3984.625
373.503967285,3920.3
373.799194336,3894.525
374.094421387,3884.35
374.389648438,3876.05
374.684844971,3862.25
374.979980469,3892.0
375.275146484,3908.9
375.570281982,3934.825
375.865386963,3932.05
376.160522461,3884.15
376.455596924,3895.4
376.750640869,3999.225
377.045715332,3999.425
377.340759277,4020.95
377.635772705,4079.375
377.93081665,4110.725
378.225769043,4170.4
378.520751953,4246.4
378.815734863,4209.125
379.110656738,4367.75
379.405548096,4518.45
379.700500488,4378.5
379.995391846,4175.35
380.290252686,4215.5
380.585083008,4323.125
380.879974365,4344.7
381.17477417,4274.775
381.469543457,4213.4
381.764404297,4211.85
382.059143066,4229.925
382.353912354,4335.0
382.648651123,4393.55
382.943389893,4391.225
383.238067627,4212.025
383.532775879,4219.175
383.827484131,4166.6
384.12210083,4155.05
384.416778564,4115.55
384.711425781,4016.7
385.006011963,4059.375
385.300628662,4045.7
385.595184326,4116.4
385.88973999,4193.75
386.184295654,4312.025
386.478820801,4372.6
386.77331543,4478.65
387.067840576,4587.275
387.362335205,4667.5
387.656768799,4733.075
387.951202393,4775.125
388.245635986,4826.45
388.540039062,4935.65
388.834472656,4989.5
389.128875732,4880.3
389.423187256,4665.45
389.717559814,4598.625
390.011871338,4709.875
390.306182861,4737.175
390.600463867,4747.425
390.894775391,4817.375
391.189025879,4865.55
391.48324585,4855.475
391.777526855,4888.8
392.071685791,5121.05
392.365875244,5196.625
392.660064697,5266.475
392.95425415,5587.35
393.248382568,5575.0
393.542510986,5136.35
393.836608887,4931.5
394.130706787,4962.525
394.424804688,4895.9
394.71887207,5009.05
395.012878418,5008.375
395.306915283,4876.375
395.600921631,4811.2
395.894927979,4758.35
396.188903809,4831.475
396.482879639,4836.525
396.776794434,5041.575
397.070739746,5007.85
397.364654541,5015.9
397.658538818,5421.475
397.952423096,5433.8
398.246307373,5415.625
398.540100098,5919.75
398.833953857,5794.05
399.127746582,5337.975
399.421508789,5350.15
399.715301514,5269.025
400.009063721,5173.025
400.30279541,5033.6
400.596496582,4930.425
400.890258789,5122.25
401.183929443,5180.45
401.47756958,5084.8
401.771240234,4845.975
402.064880371,4858.3
402.35848999,4910.275
402.652130127,4804.95
402.945678711,4853.875
403.239257812,4827.975
403.532775879,4769.575
403.82635498,4800.925
404.119842529,4729.8
404.413360596,4727.95
404.706848145,4756.075
405.000274658,4712.425
405.293762207,4790.0
405.587188721,4843.75
405.880584717,4671.8
406.17401123,4490.275
406.467407227,4303.0
406.760742188,4303.75
407.054107666,4344.55
407.347442627,4263.725
407.640716553,4245.2
407.934051514,4306.775
408.227325439,4383.825
408.520568848,4588.05
408.813842773,4690.225
409.107086182,4469.825
409.400238037,4449.925
409.693450928,4354.1
409.986633301,4489.575
410.279754639,4397.3
410.572875977,4110.175
410.86605835,4031.625
411.159118652,4054.95
411.452209473,4074.175
411.745330811,3942.8
412.038360596,3851.875
412.331390381,3898.425
412.624420166,3930.675
412.917388916,3835.85
413.210388184,3648.4
413.503387451,3635.525
413.796295166,3540.425
414.089233398,3346.0
414.382141113,3269.925
414.675048828,3257.9
414.967926025,3286.75
415.260803223,3240.6
415.55368042,3271.6
415.846466064,3221.875
416.139282227,3302.825
416.432098389,3433.2
416.724853516,3390.375
417.017608643,3366.925
417.31036377,3379.0
417.603088379,3497.55
417.895782471,3469.0
418.188476562,3434.625
418.481140137,3494.625
418.773803711,3560.2
419.066436768,3520.275
419.359039307,3624.075
419.651641846,3612.975
419.944244385,3607.1
420.236816406,3565.225
420.529327393,3761.85
420.821899414,3842.2
421.114379883,3756.275
421.406860352,4032.85
421.699371338,4270.975
421.991821289,4211.0
422.284240723,4013.275
422.576721191,3861.925
422.869110107,3755.05
423.161468506,3701.25
423.453857422,3743.05
423.74621582,3620.45
424.038543701,3492.975
424.330871582,3455.825
424.623168945,3389.625
424.915435791,3523.175
425.207702637,3482.95
425.499969482,3439.8
425.792205811,3358.45
426.084411621,3129.725
426.376617432,3216.175
426.668762207,3267.85
426.9609375,3141.725
427.253082275,3273.25
427.545196533,3676.2
427.837310791,3392.7
428.129425049,3109.425
428.421447754,3315.225
428.713531494,3332.525
429.005554199,3317.8
429.297576904,3337.25
429.589599609,3757.675
429.881561279,4067.725
430.173522949,3876.65
430.465484619,3809.025
430.757415771,3873.975
431.049316406,3641.125
431.341186523,3422.15
431.633117676,3319.525
431.924957275,3011.075
432.21673584,2928.575
432.508636475,3060.625
432.800415039,3078.675
433.092163086,2963.5
433.383972168,2947.25
433.675689697,3653.125
433.967437744,4145.15
434.259155273,3192.175
434.550872803,2876.275
434.842498779,2934.975
435.134185791,3061.725
435.425842285,3089.725
435.717437744,2981.275
436.009063721,2809.7
436.30065918,2945.675
436.592224121,3292.1
436.883758545,3090.65
437.175323486,2833.35
437.466827393,2821.375
437.758331299,2835.975
438.049804688,2840.55
438.341247559,2919.9
438.63269043,2986.725
438.924163818,2975.25
439.215515137,2926.35
439.50692749,2827.025
439.798309326,2842.025
440.089660645,2856.35
440.380981445,2765.2
440.672332764,2768.825
440.963623047,3020.35
441.254882812,3460.625
441.546173096,3656.9
441.837402344,3409.0
442.128631592,3213.05
442.41986084,3206.775
442.711029053,3079.1
443.002197266,3152.825
443.293365479,3335.3
443.584503174,3450.925
443.875610352,3426.225
444.166717529,3168.025
444.457794189,3219.2
444.748840332,3210.075
445.039916992,3153.75
445.330932617,3235.85
445.621948242,3081.1
445.912963867,2899.95
446.203918457,3138.725
446.494812012,3352.4
446.785827637,3157.675
447.076721191,2986.4
447.367584229,2972.25
447.658447266,2949.725
447.949371338,2974.275
448.24017334,2863.7
448.530975342,2785.025
448.821838379,2951.075
449.112579346,3039.35
449.40335083,2966.275
449.694152832,3012.075
449.984863281,3017.675
450.27557373,2935.0
450.56628418,2975.525
450.856933594,3011.425
451.147583008,2856.55
451.438262939,2747.475
451.728881836,2948.7
452.019470215,3049.475
452.310089111,2841.35
452.600646973,2872.075
452.891174316,2928.4
453.181732178,2741.375
453.472229004,2618.625
453.762695312,2727.45
454.053222656,2764.9
454.343658447,2618.275
454.634063721,2576.4
454.924530029,2738.85
455.214935303,2877.85
455.505279541,2951.45
455.795715332,2799.55
456.086029053,2599.55
456.376312256,2592.175
456.666687012,2624.225
456.956939697,2731.35
457.247192383,2720.45
457.537445068,2800.25
457.827728271,2977.8
458.117919922,2909.075
458.408081055,2845.175
458.698303223,3023.825
458.988433838,2964.925
459.278564453,2782.175
459.568725586,3056.925
459.858825684,3154.65
460.148864746,2861.6
460.438995361,2817.725
460.729034424,2866.7
461.019042969,2890.65
461.309082031,3087.85
461.599060059,2963.825
461.889007568,2516.75
462.179016113,2334.8
462.468933105,2574.65
462.75881958,2679.375
463.048736572,2424.825
463.338592529,2690.65
463.628448486,3036.675
463.918365479,2741.175
464.2081604,2917.4
464.497924805,2866.975
464.787780762,2991.375
465.077514648,3297.375
465.367218018,2912.6
465.657012939,3116.25
465.946685791,3542.8
466.236358643,3131.175
466.526092529,2595.925
466.815734863,2607.65
467.105316162,2519.2
467.394927979,2568.35
467.684570312,2417.475
467.974121094,2511.375
468.263671875,2606.95
468.553222656,2383.0
468.842773438,2290.275
469.132232666,2192.125
469.42175293,2226.825
469.711212158,2187.2
470.000640869,2074.7
470.290100098,2120.3
470.579498291,2169.25
470.868835449,2164.25
471.158294678,2109.2
471.447601318,2103.175
471.736907959,2163.475
472.026275635,2230.275
472.315551758,2221.225
472.604797363,2208.275
472.894104004,2338.975
473.183319092,2455.4
473.47253418,2449.175
473.761779785,2430.475
474.05090332,2346.975
474.340087891,2317.775
474.629241943,2244.75
474.918365479,2415.575
475.207427979,2688.7
475.496551514,2708.375
475.785614014,2444.875
476.074645996,2245.425
476.363708496,2338.375
476.652679443,2487.925
476.941650391,2300.6
477.230682373,2139.9
477.519622803,2154.8
477.808502197,2298.825
478.097412109,2560.175
478.386352539,2511.175
478.675201416,2243.15
478.964050293,2150.75
479.25289917,2338.0
479.541717529,2385.325
479.830474854,2241.7
480.11932373,2567.75
480.408050537,2752.175
480.696777344,2389.45
480.985534668,2256.075
481.274200439,2335.8
481.562866211,2574.825
481.851593018,2594.075
482.140197754,2551.2
482.428833008,2394.275
482.717468262,2169.6
483.006011963,2211.5
483.294586182,2325.125
483.5831604,2377.975
483.871673584,2234.075
484.16015625,2378.075
484.448699951,2612.125
484.7371521,2635.425
485.02557373,2648.125
485.314025879,2386.775
485.602416992,3720.525
485.890777588,13127.075
486.179199219,11776.15
486.467559814,3145.8
486.755859375,2287.15
487.044219971,2660.3
487.332519531,2844.625
487.620758057,2428.275
487.908966064,2188.275
488.197265625,1988.5
488.485473633,1897.65
488.773651123,2003.25
489.061859131,1999.975
489.350006104,1941.55
489.638122559,1894.65
489.926300049,1921.725
490.214355469,1872.975
490.502441406,1818.4
490.790527344,1748.1
491.078552246,1940.15
491.366546631,1937.45
491.654602051,1708.0
491.942565918,1782.7
492.230499268,1819.85
492.518493652,1788.925
492.806396484,1814.425
493.094268799,1732.125
493.382202148,1768.7
493.670074463,1890.725
493.957885742,1735.475
494.245727539,1728.725
494.533508301,1895.625
494.821289062,1779.075
495.109100342,1631.575
495.396850586,1585.225
495.684539795,1542.85
495.972290039,1747.2
496.25994873,2082.65
496.547607422,2083.225
496.835296631,1912.7
497.122894287,1591.525
497.410522461,1526.425
497.6980896,1525.85
497.985687256,1486.15
498.273223877,1589.65
498.560760498,1650.65
498.848266602,1682.975
499.135772705,1647.575
499.423217773,1692.425
499.710693359,1794.275
499.998138428,1727.45
500.285522461,1573.9
500.572937012,1491.625
500.860290527,1542.5
501.147644043,1649.7
501.434997559,1857.2
501.722290039,1734.75
502.00958252,1510.075
502.296875,1759.175
502.584106445,1747.425
502.871337891,1563.975
503.158599854,1650.25
503.445770264,1727.925
503.732910156,1708.2
504.020141602,1513.15
504.307220459,1505.875
504.594329834,1538.175
504.881469727,1475.15
505.168518066,1553.525
505.455535889,1605.175
505.742614746,1498.425
506.029632568,1422.5
506.316589355,1602.275
506.603637695,1695.925
506.890563965,1504.95
507.177459717,1337.95
507.464385986,1250.25
507.751312256,1485.675
508.038146973,1557.9
508.325012207,1425.325
508.611877441,1480.125
508.898681641,1495.275
509.185424805,1333.2
509.472259521,1294.725
509.759002686,1366.75
510.045715332,1417.325
510.332458496,1345.1
510.619140625,1411.15
510.905761719,1322.775
511.192504883,1318.95
511.479095459,1364.85
511.765686035,1312.6
512.052307129,1245.475
512.338928223,1185.375
512.625427246,1241.2
512.91204834,1295.0
513.198486328,1273.25
513.484985352,1241.775
513.77142334,1177.475
514.057922363,1225.175
514.344299316,1208.3
514.63079834,1169.475
514.917175293,1159.8
515.203552246,1077.175
515.489868164,1043.425
515.776245117,1163.15
516.0625,1203.525
516.348815918,1116.075
516.635070801,1155.025
516.921325684,1206.3
517.207580566,1142.6
517.493774414,1051.5
517.779968262,1063.35
518.066101074,1106.125
518.352294922,1056.975
518.638366699,1058.625
518.924499512,1136.35
519.210632324,1210.025
519.496643066,1172.175
519.782714844,1080.125
520.068786621,1050.725
520.354736328,1014.375
520.640686035,970.875
520.926757812,1010.4
521.212646484,1091.675
521.498535156,1096.025
521.784484863,1045.7
522.0703125,975.75
522.356262207,1004.2
522.642089844,1074.1
522.927856445,1057.925
523.213684082,1059.375
523.499511719,1046.525
523.78527832,1079.725
524.070983887,1142.65
524.356750488,1130.025
524.64239502,1073.775
524.928039551,1069.925
525.213806152,1083.625
525.499389648,1069.05
525.784973145,1109.1
526.070617676,1146.425
526.356140137,1111.2
526.641723633,1120.8
526.927307129,1187.75
527.212768555,1196.375
527.498291016,1163.45
527.783752441,1166.7
528.069213867,1139.45
528.354675293,1178.075
528.640014648,1329.525
528.925476074,1400.65
529.21081543,1318.725
529.496154785,1287.225
529.781555176,1271.875
530.066833496,1280.65
530.352050781,1299.725
530.637390137,1285.0
530.922607422,1293.25
531.207824707,1284.325
531.493041992,1261.35
531.778198242,1335.875
532.063354492,1316.975
532.348571777,1258.4
532.633666992,1279.8
532.918762207,1355.25
533.203857422,1435.925
533.488891602,1468.975
533.773925781,1400.8
534.059020996,1395.05
534.343933105,1418.175
534.628967285,1385.325
534.91394043,1414.425
535.198852539,1419.7
535.483703613,1404.5
535.768676758,1344.8
536.053527832,1349.075
536.338317871,1310.325
536.62322998,1241.55
536.90802002,1220.625
537.192810059,1236.9
537.477539062,1326.9
537.762329102,1366.8
538.047058105,1400.425
538.331726074,1429.65
538.616455078,1420.8
538.901123047,1406.025
539.18572998,1443.325
539.470397949,1448.325
539.755004883,1434.425
540.039550781,1401.15
540.32409668,1360.525
540.608703613,1396.55
540.893188477,1494.325
541.17767334,1500.075
541.462158203,1509.625
541.746643066,1460.925
542.031066895,1498.575
542.315429688,1539.925
542.59979248,1540.675
542.884216309,1523.25
543.168579102,1511.1
543.452941895,1518.675
543.737243652,1582.45
544.021484375,1616.875
544.305725098,1621.275
544.590026855,1592.05
544.874267578,1597.75
545.158447266,1661.05
545.442626953,1582.175
545.726806641,1483.725
546.010925293,1515.55
546.29510498,1558.675
546.579162598,1531.9
546.863220215,1576.875
547.147277832,1645.875
547.431335449,1726.4
547.715332031,1782.675
547.999328613,1890.8
548.283325195,1905.1
548.567260742,1760.1
548.851135254,1728.95
549.135070801,1701.625
549.419006348,1610.625
549.702819824,1706.2
549.986755371,1781.65
550.270507812,1753.175
550.554321289,1788.05
550.83807373,1794.9
551.121826172,1755.425
551.405517578,1773.025
551.689331055,1893.425
551.973022461,2117.575
552.256652832,2170.75
552.540344238,2080.45
552.823974609,2056.475
553.107543945,2036.925
553.391174316,2105.35
553.674743652,2157.3
553.958251953,2157.7
554.241821289,2174.175
554.525268555,2113.8
554.808776855,2111.475
555.092285156,2306.6
555.375671387,2390.325
555.659057617,2375.825
555.942504883,2406.9
556.225891113,2438.975
556.509216309,2413.6
556.792541504,2318.15
557.075866699,2382.85
557.359130859,2433.8
557.64239502,2431.175
557.92565918,2513.925
558.208862305,2490.95
558.49206543,2410.075
558.77532959,2440.275
559.058410645,2492.4
559.341552734,2475.925
559.624694824,2542.2
559.907775879,2601.325
560.190856934,2731.075
560.473937988,2715.925
560.756896973,2756.95
561.039978027,2788.875
561.322937012,2754.525
561.605895996,2737.125
561.88885498,2709.55
562.171813965,2717.35
562.454650879,2718.0
562.737548828,2760.025
563.020446777,2822.9
563.303283691,2833.925
563.58605957,2877.25
563.868896484,2887.775
564.151672363,2937.625
564.434387207,2974.75
564.717163086,2959.95
564.99987793,2995.15
565.282531738,3049.75
565.565185547,2999.15
565.847839355,3013.125
566.130432129,3118.525
566.413085938,3106.95
566.695678711,3125.725
566.978149414,3231.275
567.260681152,3385.5
567.543273926,3458.35
567.825744629,3355.825
568.108154297,3398.225
568.390686035,3544.625
568.673095703,3657.225
568.955505371,3698.925
569.237854004,3751.0
569.520202637,4029.125
569.802490234,4239.675
570.084838867,4219.225
570.367126465,4042.2
570.649414062,4064.95
570.93170166,4424.975
571.213928223,4503.075
571.496154785,4249.4
571.778381348,4490.25
572.06048584,4750.325
572.342590332,4298.975
572.624755859,3933.4
572.906860352,4017.5
573.188903809,4701.5
573.470947266,4965.2
573.752990723,4738.175
574.03503418,4825.45
574.317016602,5213.575
574.598937988,5009.525
574.88092041,4890.9
575.162841797,5071.0
575.444763184,4700.125
575.726623535,4435.25
576.008483887,4466.5
576.290344238,4918.525
576.572143555,5117.625
576.853881836,5166.825
577.135681152,5087.15
577.417419434,5134.325
577.699157715,6021.35
577.980895996,6196.125
578.262573242,5548.2
578.544128418,5059.125
578.825866699,4983.4
579.107421875,4676.775
579.388977051,4863.725
579.670593262,5269.45
579.952148438,5096.775
580.233642578,5225.4
580.515197754,5352.625
580.796691895,5025.2
581.078125,5222.0
581.359619141,6786.025
581.640991211,6863.15
581.922363281,5931.85
582.203796387,6022.1
582.485107422,5636.6
582.766418457,5232.825
583.047790527,5064.375
583.329040527,4956.975
583.610290527,4800.1
583.891540527,4934.375
584.172790527,5272.225
584.453918457,5273.625
584.735107422,5352.825
585.016235352,5829.575
585.297363281,5772.975
585.578552246,5575.65
585.859619141,5547.3
586.140625,5289.45
586.421630859,5163.625
586.702697754,5181.125
586.983642578,5425.925
587.264648438,5603.55
587.545654297,5562.0
587.826477051,5506.8
588.107421875,5322.9
588.388305664,5349.825
588.669189453,5458.15
588.950012207,5280.125
589.230834961,5187.825
589.511657715,5283.825
589.792358398,5375.175
590.073120117,5358.35
590.353881836,5332.35
590.63458252,5373.775
590.915283203,5328.4
591.195922852,5346.05
591.4765625,5373.2
591.757202148,5419.775
592.037780762,5418.325
592.31829834,5415.075
592.598937988,5639.975
592.879394531,5792.975
593.159912109,5710.575
593.440429688,5656.525
593.720825195,5645.275
594.001281738,5625.725
594.281677246,5552.3
594.562072754,5563.175
594.842407227,5678.3
595.122802734,5720.525
595.403137207,5674.35
595.683410645,5664.225
595.963623047,5645.7
596.243896484,5620.475
596.524169922,5598.125
596.804382324,5629.1
597.084533691,5664.85
597.364746094,5706.8
597.644836426,5718.025
597.924987793,5708.025
598.205078125,5682.875
598.485107422,5701.125
598.765197754,5834.45
599.045227051,5896.05
599.325195312,5785.05
599.605224609,5742.0
599.885192871,5796.0
600.165100098,5837.4
600.445007324,5779.275
600.724914551,5781.6
601.004760742,5795.925
601.284667969,5824.875
601.56451416,5785.175
601.844238281,5768.925
602.124084473,5780.075
602.403808594,5796.025
602.683532715,5824.55
602.963256836,5814.65
603.242919922,5886.125
603.522583008,5918.325
603.802246094,5880.825
604.081848145,5827.125
604.36138916,5816.925
604.641052246,5846.75
604.920532227,5821.925
605.200073242,5862.225
605.479614258,5888.075
605.759094238,5913.75
606.038574219,5898.8
606.317932129,5831.15
606.597412109,5860.525
606.87677002,5852.0
607.15612793,5910.725
607.435546875,5890.85
607.714782715,5927.075
607.99407959,5855.8
608.273376465,5852.65
608.552612305,5863.65
608.831848145,5889.675
609.111083984,5905.325
609.390258789,5870.35
609.669433594,5875.325
609.948608398,5950.475
610.227722168,5915.9
610.506713867,5857.7
610.785888672,5873.775
611.064880371,5863.35
611.34387207,5881.6
611.622924805,5909.625
611.901916504,5895.975
612.180847168,5845.225
612.459777832,5847.875
612.738647461,5838.925
613.01751709,5821.15
613.296447754,5756.575
613.575317383,5737.775
613.854064941,5665.625
614.132873535,5589.675
614.411621094,5517.4
614.690368652,5464.225
614.969177246,5397.625
615.247802734,5320.325
615.526489258,5308.75
615.805175781,5176.35
616.08380127,5061.35
616.362365723,4993.85
616.640991211,4931.925
616.919555664,4880.45
617.198059082,4997.1
617.4765625,5281.25
617.755126953,5422.2
618.033569336,5442.975
618.311950684,5468.125
618.590454102,5458.9
618.868774414,5417.8
619.147155762,5432.275
619.425598145,5417.8
619.703857422,5427.15
619.982177734,5429.225
620.260498047,5397.95
620.538757324,5396.325
620.816955566,5357.35
621.095214844,5314.6
621.373413086,5321.025
621.651550293,5368.825
621.929748535,5408.825
622.207824707,5382.575
622.485900879,5403.8
622.764038086,5389.075
623.042053223,5427.6
623.320007324,5461.5
623.598083496,5475.575
623.876037598,5428.3
624.153991699,5460.425
624.432006836,5482.275
624.709838867,5481.25
624.987731934,5476.775
625.265563965,5474.9
625.543395996,5490.95
625.821228027,5544.4
626.098999023,5531.5
626.376831055,5560.85
626.654541016,5606.325
626.932250977,5646.325
627.209960938,5679.6
627.487670898,5668.6
627.765319824,5675.625
628.04296875,5691.525
628.320495605,5715.5
628.598083496,5686.575
628.875671387,5730.4
629.153259277,5775.625
629.430725098,5812.65
629.708251953,5780.15
629.985656738,5818.0
630.263122559,5845.575
630.540588379,5858.8
630.817932129,5878.05
631.095275879,5920.85
631.372680664,5962.825
631.649963379,5996.75
631.927246094,6073.175
632.204589844,6070.6
632.481811523,6132.05
632.759033203,6216.425
633.036254883,6220.125
633.313415527,6315.65
633.590576172,6349.625
633.867736816,6480.25
634.144836426,6537.825
634.421875,6568.35
634.698913574,6659.1
634.976013184,6697.625
635.252990723,6732.775
635.529968262,6747.175
635.807006836,6825.15
636.08392334,6807.725
636.360839844,6729.725
636.637756348,6629.65
636.914611816,6589.4
637.191467285,6556.825
637.468261719,6633.475
637.745056152,6609.1
638.021789551,6634.825
638.298583984,6635.775
638.575317383,6659.8
638.851989746,6657.15
639.12878418,6683.175
639.405395508,6632.55
639.682006836,6686.45
639.958618164,6672.675
640.235229492,6639.725
640.511779785,6689.225
640.788330078,6650.65
641.064880371,6649.05
641.341308594,6617.175
641.617797852,6655.725
641.894226074,6626.625
642.170654297,6638.45
642.44708252,6626.15
642.723388672,6623.45
642.999755859,6629.925
643.276123047,6632.75
643.552429199,6611.525
643.828674316,6595.35
644.104919434,6588.45
644.381164551,6547.8
644.657348633,6565.3
644.933532715,6512.575
645.209716797,6510.25
645.485839844,6471.2
645.761901855,6487.55
646.038024902,6477.35
646.314086914,6492.925
646.590087891,6480.075
646.866149902,6493.075
647.142150879,6470.775
647.41809082,6458.8
647.694030762,6444.475
647.969970703,6424.425
648.245788574,6412.275
648.521728516,6397.125
648.797546387,6389.275
649.073303223,6406.825
649.349182129,6390.65
649.624938965,6379.425
649.900634766,6371.475
650.176391602,6351.75
650.452087402,6326.625
650.727783203,6358.3
651.003479004,6339.475
651.279052734,6336.55
651.554626465,6298.75
651.83026123,6300.625
652.105773926,6317.7
652.381286621,6246.575
652.656860352,6289.075
652.932312012,6283.275
653.207763672,6275.55
653.483215332,6291.525
653.758605957,6262.4
654.033935547,6253.25
654.309326172,6254.925
654.584716797,6286.85
654.859985352,6264.45
655.135253906,6274.15
655.410583496,6301.875
655.685791016,7266.1
655.9609375,11302.15
656.236206055,11003.25
656.511291504,7282.1
656.786437988,6398.725
657.061645508,6304.025
657.336669922,6248.225
657.611694336,6274.1
657.886779785,6296.65
658.161804199,6318.4
658.436828613,6268.825
658.711791992,6263.9
658.986755371,6278.575
659.261657715,6254.475
659.536621094,6278.85
659.811401367,6293.775
660.086303711,6314.7
660.36114502,6296.2
660.635864258,6269.6
660.910644531,6320.3
661.185424805,6285.475
661.460205078,6305.875
661.734863281,6296.4
662.009521484,6310.9
662.284179688,6282.475
662.558776855,6321.0
662.833435059,6338.775
663.108032227,6351.975
663.382568359,6323.775
663.657043457,6359.425
663.93157959,6374.975
664.206054688,6327.375
664.48046875,6381.325
664.755004883,6371.55
665.02935791,6378.675
665.303710938,6381.2
665.578125,6404.95
665.852416992,6393.75
666.126708984,6374.925
666.401062012,6414.4
666.675292969,6439.675
666.949462891,6417.05
667.223754883,6424.225
667.497924805,6449.875
667.772094727,6442.8
668.046264648,6419.575
668.3203125,6464.85
668.594421387,6465.4
668.868469238,6435.375
669.14251709,6454.85
669.416503906,6461.425
669.690551758,6453.45
669.964477539,6479.2
670.23840332,6453.15
670.512329102,6469.95
670.786254883,6422.775
671.060058594,6486.1
671.333984375,6474.775
671.607788086,6483.0
671.881530762,6472.775
672.155334473,6501.025
672.429077148,6504.35
672.702758789,6493.625
672.97644043,6451.625
673.25012207,6453.825
673.523742676,6456.75
673.797302246,6442.5
674.070922852,6511.35
674.344482422,6484.725
674.618041992,6488.9
674.891601562,6477.9
675.165100098,6491.9
675.438476562,6482.375
675.711975098,6479.425
675.985412598,6461.75
676.258789062,6456.875
676.532165527,6476.95
676.805480957,6467.225
677.078796387,6458.1
677.352111816,6470.825
677.625366211,6463.425
677.898620605,6441.475
678.171875,6472.4
678.445007324,6435.6
678.718200684,6481.15
678.991394043,6452.0
679.264404297,6469.075
679.537536621,6459.175
679.81060791,6465.375
680.083679199,6482.675
680.356689453,6444.275
680.629699707,6436.8
680.902648926,6400.65
681.175598145,6455.825
681.448547363,6465.575
681.721435547,6444.925
681.99420166,6444.0
682.267150879,6436.1
682.539916992,6462.875
682.812744141,6452.325
683.085510254,6436.325
683.358215332,6426.375
683.63092041,6412.4
683.903625488,6423.275
684.176330566,6394.575
684.448913574,6367.075
684.721557617,6361.675
684.99420166,6414.7
685.266662598,6413.225
685.539245605,6402.275
685.811767578,6413.875
686.084289551,6402.6
686.356689453,6416.45
686.629150391,6421.875
686.901550293,6421.875
687.17401123,6416.05
687.446350098,6447.475
687.718688965,6427.025
687.990966797,6461.575
688.263305664,6416.175
688.535522461,6390.65
688.807739258,6396.425
689.079956055,6443.475
689.352172852,6426.05
689.624328613,6411.875
689.896484375,6426.35
690.168518066,6427.9
690.440612793,6456.575
690.71270752,6482.4
690.984741211,6457.875
691.256713867,6469.85
691.528747559,6434.2
691.800720215,6444.825
692.072631836,6457.325
692.344543457,6474.675
692.616394043,6468.5
692.888244629,6463.975
693.160095215,6510.5
693.431945801,6490.8
693.703674316,6481.7
693.975463867,6454.975
694.247131348,6483.35
694.518859863,6482.875
694.790588379,6474.2
695.062255859,6486.9
695.33380127,6476.55
695.60546875,6480.6
695.87701416,6458.825
696.148498535,6472.8
696.42010498,6463.2
696.691589355,6472.2
696.96307373,6488.775
697.234558105,6517.425
697.50592041,6503.9
697.777282715,6495.95
698.048706055,6487.325
698.320068359,6506.925
698.591308594,6500.125
698.862670898,6458.9
699.133972168,6518.775
699.405151367,6473.15
699.676391602,6513.025
699.947570801,6510.025
700.21875,6470.05
700.489868164,6498.275
700.761047363,6485.625
701.032104492,6536.8
701.303100586,6486.675
701.57421875,6519.05
701.845214844,6522.875
702.116149902,6540.05
702.387207031,6517.35
702.65814209,6507.425
702.928955078,6515.625
703.199951172,6487.425
703.47076416,6467.3
703.741577148,6471.375
704.012451172,6487.3
704.28314209,6520.275
704.553955078,6484.375
704.824707031,6509.525
705.095397949,6529.8
705.366027832,6519.525
705.63671875,6508.625
705.907348633,6458.8
706.17791748,6491.55
706.448486328,6474.35
706.719055176,6487.35
706.989562988,6521.5
707.260131836,6529.7
707.530517578,6539.975
707.800964355,6522.625
708.071411133,6477.875
708.341796875,6481.8
708.612182617,6455.95
708.882446289,6436.125
709.152893066,6465.225
709.423156738,6485.375
709.693359375,6458.7
709.963623047,6481.375
710.233825684,6482.675
710.503967285,6479.05
710.774169922,6477.975
711.044311523,6447.725
711.31439209,6422.9
711.584533691,6447.5
711.854553223,6453.35
712.124572754,6467.225
712.39465332,6414.375
712.664611816,6445.35
712.934509277,6459.45
713.204467773,6422.75
713.474365234,6445.475
713.74420166,6418.775
714.014099121,6461.175
714.283874512,6438.875
714.553710938,6446.575
714.823486328,6429.35
715.093200684,6395.775
715.362915039,6423.475
715.632629395,6439.125
715.902282715,6419.75
716.171875,6389.35
716.441589355,6409.85
716.711181641,6369.1
716.980712891,6380.35
717.250244141,6387.0
717.519775391,6406.225
717.78918457,6377.875
718.058654785,6411.025
718.328125,6428.225
718.597473145,6394.45
718.866882324,6416.025
719.136230469,6431.975
719.405578613,6439.775
719.674865723,6430.025
719.944152832,6446.425
720.213439941,6418.8
720.48260498,6448.95
720.75177002,6436.575
721.020996094,6405.15
721.290100098,6449.75
721.559204102,6393.475
721.828308105,6432.175
722.097351074,6424.425
722.366455078,6399.075
722.635437012,6387.5
722.904418945,6374.85
723.173400879,6399.35
723.442321777,6413.975
723.711181641,6391.975
723.980102539,6405.925
724.248962402,6384.9
724.51776123,6363.725
724.786560059,6381.5
725.055358887,6399.2
725.324035645,6365.875
725.592834473,6389.15
725.86151123,6395.05
726.130187988,6382.825
726.398803711,6370.325
726.667419434,6384.6
726.935974121,6387.65
727.204528809,6344.95
727.473083496,6346.4
727.741638184,6322.825
728.010070801,6310.775
728.278564453,6294.1
728.546936035,6305.675
728.815368652,6236.925
729.08380127,6220.825
729.352111816,6184.275
729.620361328,6152.875
729.88873291,6164.875
730.156982422,6204.025
730.425231934,6203.7
730.693481445,6205.425
730.961669922,6258.2
731.229797363,6294.85
731.49798584,6294.35
731.766113281,6354.0
732.034118652,6384.45
732.302246094,6428.875
732.570251465,6451.3
732.838256836,6484.525
733.106262207,6542.075
733.374145508,6541.65
733.642089844,6603.425
733.909973145,6638.875
734.177856445,6676.95
734.445678711,6739.2
734.713562012,6826.15
734.981323242,6797.225
735.249084473,6866.6
735.516845703,6964.15
735.784545898,6991.45
736.052185059,7039.1
736.319885254,7123.775
736.587524414,7154.85
736.855102539,7192.275
737.122619629,7277.4
737.390197754,7313.275
737.657714844,7388.85
737.925170898,7412.65
738.192749023,7518.975
738.460144043,7567.7
738.727539062,7585.575
738.994995117,7688.8
739.262329102,7756.55
739.529663086,7848.4
739.79699707,7875.85
740.06427002,7941.2
740.331481934,8006.075
740.598754883,8034.675
740.865905762,8049.525
741.133056641,8177.2
741.40032959,8176.1
741.667358398,8219.425
741.934448242,8255.7
742.201599121,8269.825
742.468566895,8352.25
742.735534668,8393.025
743.002563477,8419.475
743.26953125,8416.575
743.536437988,8460.375
743.803405762,8528.4
744.0703125,8526.85
744.337097168,8613.45
744.604003906,8533.525
744.870727539,8623.475
745.137512207,8649.45
745.40423584,8675.025
745.670959473,8646.95
745.93762207,8690.65
746.204284668,8731.825
746.470947266,8718.625
746.737548828,8707.475
747.004089355,8716.925
747.270751953,8735.275
747.53717041,8790.2
747.803710938,8733.4
748.070251465,8730.925
748.336608887,8714.475
748.603027344,8711.725
748.869445801,8737.55
749.135803223,8718.225
749.402099609,8751.6
749.668457031,8733.725
749.934753418,8738.675
750.20098877,8709.275
750.467224121,8764.725
750.733459473,8743.575
750.999572754,8708.65
751.26574707,8664.75
751.531860352,8720.725
751.797912598,8683.1
752.064025879,8640.25
752.330078125,8622.925
752.596069336,8623.425
752.862060547,8576.3
753.127990723,8611.05
753.393920898,8593.825
753.659912109,8557.325
753.925720215,8590.25
754.19152832,8565.125
754.457397461,8526.675
754.723144531,8513.925
754.988952637,8473.4
755.254699707,8508.275
755.520385742,8556.775
755.786071777,8510.8
756.051696777,8504.925
756.317382812,8469.15
756.582946777,8436.65
756.848510742,8479.625
757.114074707,8407.675
757.379577637,8424.2
757.645080566,8478.4
757.910583496,8441.75
758.175964355,8392.65
758.441345215,8407.125
758.706848145,8308.6
758.972106934,8290.875
759.237426758,8337.55
759.502807617,8378.425
759.768005371,8386.45
760.03326416,8334.15
760.298522949,8283.55
760.563659668,8297.425
760.828857422,8286.525
761.093994141,8292.3
761.359130859,8249.7
761.624206543,8271.3
761.889282227,8201.6
762.15423584,8199.025
762.419250488,8189.85
762.684265137,8172.5
762.949157715,8167.175
763.214050293,8167.3
763.479003906,8188.225
763.743835449,8170.625
764.008666992,8161.8
764.2734375,8150.475
764.538208008,8176.5
764.802978516,8201.025
765.067687988,8168.975
765.332397461,8168.375
765.597045898,8134.975
765.861694336,8117.15
766.126342773,8089.275
766.390930176,8079.925
766.655395508,8054.525
766.920043945,8021.35
767.184509277,8030.025
767.448974609,8070.775
767.713439941,8052.05
767.977783203,7996.425
768.2421875,8048.45
768.506591797,8010.0
768.770874023,8098.15
769.03515625,8058.45
769.299499512,8049.975
769.563720703,8067.3
769.827941895,8003.65
770.092163086,8017.05
770.356323242,7994.525
770.620483398,8000.525
770.88458252,8028.3
771.148681641,8035.825
771.412719727,7990.35
771.676757812,8027.075
771.940734863,7978.4
772.204711914,8002.8
772.468688965,7985.375
772.73260498,7994.325
772.996459961,7999.25
773.260314941,7120.2
773.524169922,931.85
773.787963867,148.75
774.051696777,122.425
774.315551758,121.4
774.579223633,122.525
774.842895508,122.5
775.106567383,121.625
775.370239258,119.45
775.633789062,126.3
775.897399902,127.625
776.160949707,118.875
776.424499512,121.525
776.687988281,125.3
776.951477051,125.55
777.214904785,121.825
777.47833252,122.025
