191.299911499,102.575
191.603515625,101.7
191.907119751,98.8
192.210693359,106.825
192.514251709,102.075
192.817810059,103.475
193.121368408,103.325
193.42489624,106.85
193.728408813,100.725
194.031936646,98.075
194.33543396,93.325
194.638916016,113.175
194.94241333,99.35
195.245880127,99.3
195.549331665,95.475
195.852767944,99.825
196.156204224,191.075
196.459625244,187.25
196.763015747,190.65
197.066436768,195.075
197.369812012,190.325
197.673187256,191.05
197.9765625,187.775
198.279922485,193.25
198.583251953,187.925
198.886581421,191.4
199.18989563,196.775
199.493209839,192.975
199.79649353,185.8
200.09979248,197.725
200.403076172,186.55
200.706314087,193.5
201.009567261,194.575
201.312820435,190.75
201.616027832,183.175
201.919235229,179.875
202.222457886,181.4
202.525634766,187.475
202.828826904,182.025
203.132003784,180.225
203.435150146,183.925
203.738296509,181.7
204.041412354,182.075
204.344558716,180.95
204.647659302,185.2
204.950759888,187.075
205.253845215,189.225
205.556930542,186.125
205.859985352,183.725
206.163024902,183.1
206.466079712,186.05
206.769104004,195.05
207.072113037,187.225
207.375137329,185.25
207.678131104,184.5
207.981109619,189.45
208.284088135,186.075
208.587036133,188.45
208.889984131,188.15
209.19291687,193.55
209.495849609,192.85
209.798751831,191.325
210.101654053,193.75
210.404556274,190.175
210.707427979,192.85
211.010269165,200.025
211.31312561,198.15
211.615982056,195.25
211.918807983,193.575
212.221618652,197.425
212.524429321,189.2
212.827224731,200.325
213.130004883,199.475
213.432769775,201.025
213.735534668,196.775
214.038269043,204.1
214.341003418,200.2
214.643737793,204.325
214.946456909,207.425
215.249145508,206.9
215.551834106,208.7
215.854507446,207.175
216.157165527,209.4
216.45980835,212.625
216.762451172,214.9
217.065078735,215.975
217.36769104,216.275
217.670303345,215.375
217.972885132,219.225
218.275466919,221.8
218.578048706,218.45
218.880599976,227.725
219.183120728,227.95
219.485656738,227.15
219.788192749,243.8
220.090682983,253.475
220.393188477,267.05
220.695663452,292.625
220.998138428,316.025
221.300582886,359.75
221.603042603,383.425
221.905487061,427.4
222.207901001,483.975
222.510299683,545.0
222.812728882,602.55
223.115097046,686.775
223.41746521,755.975
223.719848633,839.275
224.022171021,916.8
224.324508667,1010.775
224.626846313,1119.95
224.929168701,1208.425
225.231460571,1296.875
225.533737183,1395.8
225.836013794,1505.65
226.138290405,1591.0
226.440536499,1684.575
226.742767334,1769.525
227.044998169,1848.7
227.347213745,1954.025
227.649429321,1998.9
227.951629639,2070.4
228.253799438,2135.5
228.555953979,2202.975
228.858123779,2245.875
229.160263062,2321.275
229.462371826,2346.1
229.764511108,2395.7
230.066619873,2438.075
230.36869812,2465.075
230.670776367,2503.625
230.972854614,2564.95
231.274902344,2605.425
231.576950073,2671.375
231.878967285,2722.4
232.180999756,2763.4
232.48298645,2808.975
232.784988403,2849.675
233.086975098,2909.025
233.388946533,2932.625
233.69090271,3010.1
233.992858887,3054.9
234.294769287,3061.175
234.596694946,3127.65
234.898605347,3184.375
235.200500488,3215.175
235.502380371,3253.375
235.804244995,3259.075
236.106109619,3275.025
236.407958984,3326.425
236.709777832,3344.35
237.011581421,3389.025
237.313400269,3388.275
237.615203857,3415.925
237.916976929,3467.2
238.21875,3476.5
238.520507812,3508.15
238.822250366,3531.025
239.12399292,3530.5
239.425704956,3582.125
239.727401733,3578.025
240.02911377,3606.0
240.330780029,3613.525
240.632446289,3637.975
240.93409729,3667.4
241.23576355,3704.15
241.537384033,3731.125
241.839004517,3757.15
242.140594482,3783.825
242.442199707,3843.4
242.743774414,3871.05
243.045333862,3919.0
243.346923828,3953.975
243.648452759,3985.65
243.949966431,4027.75
244.251495361,4090.325
244.552993774,4114.075
244.854492188,4138.125
245.155975342,4170.125
245.457443237,4233.325
245.758880615,4266.55
246.060333252,4297.425
246.36177063,4304.55
246.66317749,4340.2
246.964569092,4385.75
247.265945435,4417.7
247.567337036,4463.05
247.86869812,4522.175
248.170059204,4571.1
248.471389771,4623.1
248.772705078,4690.175
249.074035645,4744.725
249.375335693,4816.15
249.676620483,4869.575
249.977890015,4969.625
250.279159546,5071.75
250.58039856,5147.75
250.881637573,5224.75
251.182876587,5321.825
251.484069824,5411.175
251.785263062,5516.05
252.086456299,5671.75
252.387619019,5731.075
252.688781738,5797.1
252.989929199,5932.325
253.291061401,6061.3
253.592178345,6152.875
253.893280029,6227.1
254.194366455,6336.05
254.49546814,6388.725
254.796524048,6443.15
255.097579956,6543.7
255.398620605,6573.6
255.699645996,6667.675
256.000640869,6659.75
256.30166626,6724.8
256.602661133,6816.3
256.903656006,6763.7
257.204589844,6824.275
257.505523682,6803.775
257.80645752,6873.375
258.107391357,6817.575
258.408294678,6803.6
258.709228516,6803.475
259.010070801,6752.45
259.310943604,6761.8
259.611846924,6693.175
259.912658691,6656.225
260.213500977,6613.225
260.514343262,6564.375
260.815124512,6482.4
261.115936279,6433.0
261.416717529,6384.35
261.717468262,6375.95
262.018218994,6334.725
262.318969727,6318.425
262.619689941,6335.65
262.920410156,6370.05
263.221130371,6409.675
263.521789551,6423.75
263.822479248,6445.725
264.123138428,6501.025
264.42376709,6480.525
264.72442627,6481.15
265.025054932,6474.425
265.325622559,6479.6
265.626251221,6456.825
265.926818848,6422.6
266.227386475,6337.45
266.527954102,6297.775
266.828460693,6286.625
267.12902832,6193.05
267.429534912,6100.625
267.730010986,6071.725
268.030517578,5999.275
268.330993652,5950.35
268.631439209,5885.875
268.931915283,5859.575
269.232299805,5784.0
269.532745361,5758.625
269.8331604,5720.8
270.133544922,5690.1
270.433929443,5656.375
270.734313965,5653.55
271.034637451,5609.925
271.334991455,5605.425
271.635314941,5601.75
271.935638428,5608.775
272.235931396,5643.175
272.536254883,5669.375
272.836486816,5703.3
273.136749268,5768.6
273.437011719,5853.825
273.737213135,5937.45
274.037445068,5978.0
274.337677002,6070.65
274.6378479,6132.775
274.938049316,6256.725
275.238220215,6319.45
275.538360596,6440.85
275.838500977,6467.95
276.138641357,6626.95
276.438751221,6683.425
276.738830566,6721.8
277.03894043,6777.8
277.338989258,6887.15
277.639038086,6980.675
277.939056396,7006.35
278.239105225,7046.55
278.539093018,7131.4
278.839141846,7154.25
279.139129639,7200.675
279.439086914,7264.075
279.739044189,7316.825
280.039001465,7377.65
280.338928223,7390.4
280.63885498,7423.35
280.938781738,7478.025
281.238647461,7493.875
281.538513184,7482.475
281.838409424,7549.1
282.138244629,7574.425
282.438079834,7570.225
282.737945557,7575.8
283.037719727,7590.925
283.337524414,7618.75
283.637298584,7592.65
283.937072754,7603.225
284.236816406,7601.025
284.536560059,7574.85
284.836303711,7607.2
285.136016846,7639.625
285.43572998,7642.4
285.735412598,7623.775
286.035064697,7582.125
286.334747314,7653.675
286.634368896,7615.475
286.933990479,7557.775
287.233642578,7523.775
287.533203125,7520.475
287.832824707,7438.975
288.132385254,7333.275
288.431945801,7224.075
288.731506348,7124.3
289.031036377,6925.95
289.330566406,6825.45
289.630065918,6792.4
289.92956543,6783.675
290.229034424,6856.25
290.528503418,7007.95
290.827941895,7147.575
291.127380371,7257.3
291.42678833,7365.375
291.726226807,7496.55
292.025604248,7541.0
292.324981689,7580.925
292.624359131,7592.35
292.923736572,7580.925
293.223052979,7597.45
293.522369385,7587.3
293.821685791,7551.25
294.12097168,7526.3
294.420257568,7490.35
294.719543457,7471.25
295.018768311,7442.55
295.318023682,7375.975
295.617248535,7327.325
295.916442871,7261.925
296.215667725,7218.4
296.514862061,7088.975
296.813995361,6880.8
297.11315918,6680.7
297.412322998,6556.15
297.711425781,6523.1
298.010559082,6680.725
298.309631348,6869.575
298.608734131,7057.15
298.907806396,7246.45
299.206848145,7378.25
299.505889893,7446.075
299.804901123,7551.325
300.103912354,7598.6
300.402954102,7675.075
300.701904297,7720.1
301.00088501,7782.9
301.299835205,7863.5
301.5987854,7887.45
301.897735596,7955.725
302.196624756,8000.475
302.495513916,8055.875
302.794403076,8114.275
303.093292236,8177.55
303.392120361,8243.325
303.690979004,8277.7
303.989837646,8311.825
304.288604736,8373.85
304.587402344,8361.725
304.886199951,8402.025
305.184967041,8443.2
305.483734131,8495.275
305.782501221,8521.075
306.081176758,8493.275
306.37991333,8566.275
306.678619385,8573.85
306.977294922,8580.25
307.275970459,8621.625
307.574645996,8593.35
307.873260498,8609.275
308.171875,8629.85
308.470489502,8630.125
308.769104004,8538.475
309.067687988,8534.275
309.366241455,8548.65
309.664794922,8493.325
309.963348389,8513.55
310.261871338,8498.575
310.560394287,8499.975
310.858856201,8517.625
311.157348633,8555.825
311.455810547,8559.5
311.754272461,8573.6
312.052703857,8671.95
312.351135254,8671.35
312.649536133,8686.525
312.947937012,8642.25
313.246307373,8685.275
313.544647217,8681.475
313.843017578,8634.9
314.141387939,8622.2
314.439697266,8643.175
314.738006592,8547.825
315.036315918,8498.275
315.334564209,8438.5
315.6328125,8376.475
315.931091309,8349.175
316.229309082,8195.55
316.527526855,8080.075
316.825744629,8057.325
317.123901367,7949.15
317.422088623,7912.325
317.720245361,7888.55
318.0184021,7933.025
318.316497803,7959.825
318.614654541,7990.175
318.912750244,8101.4
319.21081543,8073.625
319.50894165,8106.85
319.806945801,8093.025
320.104980469,8087.05
320.403045654,8102.8
320.701049805,8076.325
320.999023438,8047.95
321.297027588,8008.725
321.595001221,7995.425
321.892913818,7969.025
322.190887451,7903.65
322.488830566,7837.6
322.786712646,7831.65
323.084625244,7739.6
323.382507324,7704.75
323.680358887,7609.55
323.978210449,7537.15
324.276062012,7483.475
324.573852539,7439.475
324.871643066,7401.05
325.169464111,7323.575
325.467224121,7259.075
325.764984131,7207.75
326.062744141,7163.475
326.360473633,7058.975
326.658203125,7016.975
326.955871582,6939.25
327.253570557,6899.75
327.551239014,6845.25
327.848907471,6743.075
328.146514893,6698.6
328.444152832,6643.725
328.741790771,6589.325
329.039367676,6543.725
329.336914062,6480.175
329.634521484,6413.55
329.932067871,6378.5
330.229553223,6295.8
330.527160645,6272.0
330.824615479,6195.675
331.12210083,6122.225
331.419586182,6027.9
331.717041016,5988.5
332.014465332,5899.85
332.311920166,5877.35
332.609313965,5818.55
332.906707764,5825.6
333.204101562,5805.475
333.501495361,5808.525
333.798828125,5844.675
334.096160889,5876.475
334.39352417,5939.175
334.690795898,6005.5
334.988098145,6034.625
335.285400391,6082.15
335.582641602,6099.025
335.879882812,6128.9
336.177124023,6136.225
336.474334717,6197.575
336.77154541,6183.475
337.068725586,6234.9
337.365905762,6237.775
337.66305542,6237.875
337.960205078,6278.95
338.257324219,6266.375
338.554443359,6277.125
338.8515625,6305.3
339.148590088,6298.6
339.445648193,6286.85
339.742736816,6249.425
340.039764404,6277.725
340.336761475,6247.275
340.63381958,6178.05
340.930755615,6151.9
341.227722168,6089.825
341.524688721,6002.35
341.821624756,5960.875
342.118560791,5974.475
342.415496826,6062.125
342.712402344,6184.825
343.009246826,6341.95
343.306121826,6448.625
343.602966309,6479.975
343.899810791,6574.7
344.196624756,6672.7
344.493438721,6676.1
344.79019165,6733.25
345.086975098,6777.35
345.383758545,6841.7
345.680480957,6810.925
345.977203369,6821.575
346.273956299,6848.425
346.570617676,6825.775
346.86730957,6876.275
347.163970947,6854.575
347.460601807,6883.575
347.757232666,6904.45
348.053894043,6876.6
348.350463867,6818.975
348.647064209,6778.75
348.943634033,6799.225
349.24017334,6813.95
349.536712646,6742.225
349.833251953,6734.0
350.129760742,6693.95
350.426208496,6713.7
350.722747803,6682.925
351.019195557,6701.675
351.315612793,6636.9
351.612060547,6605.85
351.908508301,6553.05
352.204864502,6490.675
352.501281738,6460.425
352.797637939,6386.675
353.093963623,6305.85
353.390319824,6262.25
353.686645508,6174.05
353.982940674,6119.2
354.27923584,6058.475
354.575531006,6016.675
354.871765137,5999.0
355.167999268,5978.1
355.464233398,5984.925
355.760437012,5996.875
356.056640625,5998.225
356.352813721,6028.925
356.648956299,5998.8
356.945129395,6029.425
357.241271973,6025.325
357.537384033,6035.225
357.833496094,5973.9
358.129577637,5954.975
358.425628662,5944.625
358.721679688,5920.875
359.017730713,5921.975
359.313720703,5851.025
359.609710693,5825.975
359.905761719,5778.525
360.201721191,5737.475
360.497650146,5678.55
360.793609619,5664.375
361.089538574,5573.425
361.385437012,5503.85
361.681365967,5461.675
361.977233887,5436.25
362.273071289,5361.675
362.568908691,5250.725
362.864746094,5135.15
363.160552979,5036.025
363.456359863,4846.8
363.752166748,4718.0
364.047912598,4640.425
364.343658447,4589.725
364.639434814,4647.6
364.935119629,4674.7
365.230834961,4729.725
365.526550293,4767.05
365.822174072,4765.85
366.117858887,4798.55
366.413482666,4846.85
366.709075928,4881.85
367.004730225,4781.225
367.300292969,4759.15
367.595855713,4813.6
367.891448975,4706.75
368.186981201,4603.85
368.482513428,4582.275
368.778015137,4567.875
369.073547363,4505.35
369.36895752,4524.9
369.664428711,4429.7
369.95993042,4328.025
370.255310059,4277.7
370.550720215,4251.2
370.846160889,4236.375
371.14151001,4171.85
371.436859131,4163.225
371.73223877,4146.4
372.027557373,4098.45
372.322875977,4056.55
372.618164062,4029.075
372.913482666,3991.55
373.208709717,3957.1
373.503967285,3905.625
373.799194336,3867.7
374.094421387,3867.05
374.389648438,3858.425
374.684844971,3838.95
374.979980469,3877.925
375.275146484,3915.575
375.570281982,3913.5
375.865386963,3922.425
376.160522461,3866.225
376.455596924,3869.575
376.750640869,3976.15
377.045715332,3979.15
377.340759277,4017.1
377.635772705,4058.7
377.93081665,4086.775
378.225769043,4174.575
378.520751953,4238.5
378.815734863,4191.875
379.110656738,4330.375
379.405548096,4503.45
379.700500488,4364.75
379.995391846,4149.1
380.290252686,4188.35
380.585083008,4303.25
380.879974365,4338.6
381.17477417,4247.95
381.469543457,4205.025
381.764404297,4165.85
382.059143066,4235.6
382.353912354,4287.2
382.648651123,4398.0
382.943389893,4357.875
383.238067627,4186.825
383.532775879,4205.875
383.827484131,4143.275
384.12210083,4128.8
384.416778564,4093.525
384.711425781,3987.775
385.006011963,4023.35
385.300628662,4004.15
385.595184326,4082.55
385.88973999,4187.55
386.184295654,4278.625
386.478820801,4369.675
386.77331543,4461.9
387.067840576,4566.3
387.362335205,4652.5
387.656768799,4713.55
387.951202393,4766.925
388.245635986,4836.1
388.540039062,4900.7
388.834472656,4972.225
389.128875732,4863.8
389.423187256,4635.225
389.717559814,4596.575
390.011871338,4703.925
390.306182861,4736.0
390.600463867,4739.825
390.894775391,4817.1
391.189025879,4826.7
391.48324585,4833.55
391.777526855,4868.325
392.071685791,5093.675
392.365875244,5177.0
392.660064697,5238.075
392.95425415,5591.425
393.248382568,5555.7
393.542510986,5101.675
393.836608887,4928.725
394.130706787,4917.9
394.424804688,4864.875
394.71887207,4991.35
395.012878418,4969.8
395.306915283,4862.1
395.600921631,4796.0
395.894927979,4756.875
396.188903809,4794.8
396.482879639,4840.375
396.776794434,5026.375
397.070739746,4988.25
397.364654541,5012.975
397.658538818,5401.65
397.952423096,5427.525
398.246307373,5345.975
398.540100098,5895.975
398.833953857,5773.25
399.127746582,5305.85
399.421508789,5322.3
399.715301514,5239.7
400.009063721,5155.25
400.30279541,5008.25
400.596496582,4928.6
400.890258789,5102.0
401.183929443,5183.325
401.47756958,5047.3
401.771240234,4831.775
402.064880371,4840.2
402.35848999,4895.225
402.652130127,4791.8
402.945678711,4851.325
403.239257812,4804.45
403.532775879,4747.8
403.82635498,4799.55
404.119842529,4732.875
404.413360596,4698.875
404.706848145,4755.3
405.000274658,4688.225
405.293762207,4775.325
405.587188721,4836.625
405.880584717,4663.325
406.17401123,4485.3
406.467407227,4265.55
406.760742188,4303.15
407.054107666,4321.0
407.347442627,4253.65
407.640716553,4243.575
407.934051514,4303.2
408.227325439,4362.975
408.520568848,4589.475
408.813842773,4657.075
409.107086182,4464.225
409.400238037,4417.675
409.693450928,4345.925
409.986633301,4466.9
410.279754639,4381.775
410.572875977,4096.625
410.86605835,4025.175
411.159118652,4036.3
411.452209473,4058.6
411.745330811,3909.5
412.038360596,3840.875
412.331390381,3873.1
412.624420166,3895.675
412.917388916,3817.925
413.210388184,3659.625
413.503387451,3610.8
413.796295166,3517.4
414.089233398,3333.325
414.382141113,3261.4
414.675048828,3258.425
414.967926025,3274.25
415.260803223,3224.275
415.55368042,3249.5
415.846466064,3219.85
416.139282227,3300.0
416.432098389,3426.025
416.724853516,3417.35
417.017608643,3345.0
417.31036377,3375.025
417.603088379,3484.025
417.895782471,3448.725
418.188476562,3422.975
418.481140137,3489.775
418.773803711,3546.5
419.066436768,3517.625
419.359039307,3603.5
419.651641846,3608.575
419.944244385,3600.525
420.236816406,3568.875
420.529327393,3764.45
420.821899414,3822.3
421.114379883,3774.875
421.406860352,4019.025
421.699371338,4247.475
421.991821289,4207.775
422.284240723,3989.15
422.576721191,3854.575
422.869110107,3746.475
423.161468506,3694.35
423.453857422,3750.65
423.74621582,3607.5
424.038543701,3471.775
424.330871582,3439.325
424.623168945,3373.95
424.915435791,3514.05
425.207702637,3472.775
425.499969482,3428.2
425.792205811,3353.725
426.084411621,3111.275
426.376617432,3206.9
426.668762207,3259.775
426.9609375,3150.475
427.253082275,3251.325
427.545196533,3675.25
427.837310791,3380.325
428.129425049,3095.475
428.421447754,3319.9
428.713531494,3312.075
429.005554199,3316.95
429.297576904,3318.35
429.589599609,3747.4
429.881561279,4049.225
430.173522949,3836.375
430.465484619,3792.025
430.757415771,3861.275
431.049316406,3633.0
431.341186523,3410.625
431.633117676,3296.5
431.924957275,2993.85
432.21673584,2906.875
432.508636475,3043.4
432.800415039,3061.85
433.092163086,2950.3
433.383972168,2937.75
433.675689697,3633.325
433.967437744,4126.075
434.259155273,3179.75
434.550872803,2877.6
434.842498779,2925.65
435.134185791,3047.0
435.425842285,3087.625
435.717437744,2972.9
436.009063721,2791.925
436.30065918,2925.625
436.592224121,3288.525
436.883758545,3079.725
437.175323486,2809.4
437.466827393,2795.775
437.758331299,2817.1
438.049804688,2821.775
438.341247559,2895.9
438.63269043,2977.9
438.924163818,2970.45
439.215515137,2934.85
439.50692749,2825.075
439.798309326,2841.35
440.089660645,2839.625
440.380981445,2760.975
440.672332764,2743.6
440.963623047,3010.225
441.254882812,3456.375
441.546173096,3645.05
441.837402344,3401.725
442.128631592,3213.25
442.41986084,3192.825
442.711029053,3055.85
443.002197266,3132.775
443.293365479,3307.75
443.584503174,3445.425
443.875610352,3430.2
444.166717529,3165.925
444.457794189,3206.475
444.748840332,3207.725
445.039916992,3137.75
445.330932617,3241.075
445.621948242,3084.35
445.912963867,2883.425
446.203918457,3118.5
446.494812012,3345.225
446.785827637,3143.4
447.076721191,2976.0
447.367584229,2957.45
447.658447266,2938.7
447.949371338,2979.45
448.24017334,2855.6
448.530975342,2793.825
448.821838379,2957.125
449.112579346,3025.425
449.40335083,2949.175
449.694152832,2976.525
449.984863281,2998.675
450.27557373,2916.325
450.56628418,2996.825
450.856933594,2999.5
451.147583008,2849.525
451.438262939,2738.375
451.728881836,2931.75
452.019470215,3041.225
452.310089111,2825.225
452.600646973,2866.525
452.891174316,2913.025
453.181732178,2743.775
453.472229004,2618.8
453.762695312,2717.975
454.053222656,2753.0
454.343658447,2618.7
454.634063721,2545.25
454.924530029,2724.875
455.214935303,2869.575
455.505279541,2923.275
455.795715332,2795.6
456.086029053,2609.6
456.376312256,2578.65
456.666687012,2621.4
456.956939697,2727.15
457.247192383,2696.625
457.537445068,2799.35
457.827728271,2969.55
458.117919922,2908.9
458.408081055,2842.0
458.698303223,3006.9
458.988433838,2950.625
459.278564453,2751.95
459.568725586,3026.55
459.858825684,3155.175
460.148864746,2845.5
460.438995361,2814.725
460.729034424,2872.85
461.019042969,2882.675
461.309082031,3052.725
461.599060059,2940.375
461.889007568,2505.675
462.179016113,2315.525
462.468933105,2554.975
462.75881958,2672.425
463.048736572,2421.4
463.338592529,2670.15
463.628448486,3020.375
463.918365479,2739.45
464.2081604,2910.05
464.497924805,2847.925
464.787780762,2982.3
465.077514648,3288.45
465.367218018,2908.975
465.657012939,3112.35
465.946685791,3516.1
466.236358643,3115.85
466.526092529,2590.4
466.815734863,2600.075
467.105316162,2523.525
467.394927979,2554.875
467.684570312,2412.25
467.974121094,2506.375
468.263671875,2594.9
468.553222656,2386.95
468.842773438,2291.55
469.132232666,2172.8
469.42175293,2208.425
469.711212158,2176.725
470.000640869,2062.6
470.290100098,2114.25
470.579498291,2144.3
470.868835449,2163.05
471.158294678,2095.85
471.447601318,2093.25
471.736907959,2161.15
472.026275635,2237.4
472.315551758,2212.2
472.604797363,2208.475
472.894104004,2328.75
473.183319092,2443.325
473.47253418,2429.675
473.761779785,2436.525
474.05090332,2353.825
474.340087891,2309.25
474.629241943,2238.525
474.918365479,2401.35
475.207427979,2672.475
475.496551514,2701.05
475.785614014,2446.725
476.074645996,2256.525
476.363708496,2325.05
476.652679443,2470.925
476.941650391,2306.725
477.230682373,2151.05
477.519622803,2139.9
477.808502197,2288.8
478.097412109,2552.2
478.386352539,2506.45
478.675201416,2250.55
478.964050293,2149.825
479.25289917,2341.25
479.541717529,2389.175
479.830474854,2227.65
480.11932373,2568.425
480.408050537,2738.45
480.696777344,2380.025
480.985534668,2229.45
481.274200439,2317.575
481.562866211,2578.925
481.851593018,2600.425
482.140197754,2552.075
482.428833008,2374.05
482.717468262,2174.3
483.006011963,2210.8
483.294586182,2317.7
483.5831604,2363.0
483.871673584,2237.575
484.16015625,2375.925
484.448699951,2604.5
484.7371521,2641.45
485.02557373,2627.95
485.314025879,2377.325
485.602416992,3686.6
485.890777588,13097.425
486.179199219,11723.175
486.467559814,3120.875
486.755859375,2278.475
487.044219971,2653.675
487.332519531,2825.525
487.620758057,2434.925
487.908966064,2177.05
488.197265625,1985.875
488.485473633,1896.65
488.773651123,1996.975
489.061859131,2006.275
489.350006104,1956.675
489.638122559,1891.05
489.926300049,1919.75
490.214355469,1864.025
490.502441406,1817.725
490.790527344,1740.25
491.078552246,1942.575
491.366546631,1935.925
491.654602051,1704.575
491.942565918,1780.3
492.230499268,1812.125
492.518493652,1779.7
492.806396484,1814.125
493.094268799,1725.6
493.382202148,1764.25
493.670074463,1882.9
493.957885742,1732.25
494.245727539,1731.875
494.533508301,1875.5
494.821289062,1784.275
495.109100342,1627.975
495.396850586,1577.75
495.684539795,1541.925
495.972290039,1735.525
496.25994873,2076.275
496.547607422,2089.5
496.835296631,1914.275
497.122894287,1589.05
497.410522461,1500.55
497.6980896,1513.9
497.985687256,1485.025
498.273223877,1597.125
498.560760498,1644.05
498.848266602,1669.325
499.135772705,1645.075
499.423217773,1688.925
499.710693359,1781.3
499.998138428,1722.025
500.285522461,1563.35
500.572937012,1487.375
500.860290527,1538.7
501.147644043,1643.725
501.434997559,1858.15
501.722290039,1730.55
502.00958252,1497.25
502.296875,1753.8
502.584106445,1746.825
502.871337891,1578.225
503.158599854,1646.35
503.445770264,1713.275
503.732910156,1700.2
504.020141602,1522.575
504.307220459,1499.425
504.594329834,1526.225
504.881469727,1464.2
505.168518066,1536.8
505.455535889,1611.25
505.742614746,1495.125
506.029632568,1419.975
506.316589355,1604.4
506.603637695,1674.525
506.890563965,1502.125
507.177459717,1340.625
507.464385986,1256.125
507.751312256,1473.775
508.038146973,1558.7
508.325012207,1425.225
508.611877441,1481.25
508.898681641,1486.175
509.185424805,1331.875
509.472259521,1298.85
509.759002686,1374.45
510.045715332,1392.575
510.332458496,1361.225
510.619140625,1404.65
510.905761719,1325.875
511.192504883,1313.075
511.479095459,1347.525
511.765686035,1307.375
512.052307129,1237.175
512.338928223,1183.725
512.625427246,1237.35
512.91204834,1293.25
513.198486328,1273.1
513.484985352,1236.075
513.77142334,1161.6
514.057922363,1214.1
514.344299316,1212.725
514.63079834,1180.6
514.917175293,1156.075
515.203552246,1067.375
515.489868164,1051.5
515.776245117,1162.7
516.0625,1207.425
516.348815918,1112.45
516.635070801,1153.225
516.921325684,1200.65
517.207580566,1139.0
517.493774414,1053.85
517.779968262,1059.125
518.066101074,1101.5
518.352294922,1055.7
518.638366699,1055.1
518.924499512,1137.325
519.210632324,1202.325
519.496643066,1172.075
519.782714844,1072.875
520.068786621,1045.9
520.354736328,1003.7
520.640686035,968.65
520.926757812,1010.1
521.212646484,1085.575
521.498535156,1087.9
521.784484863,1047.3
522.0703125,975.875
522.356262207,988.15
522.642089844,1066.05
522.927856445,1062.725
523.213684082,1049.825
523.499511719,1046.45
523.78527832,1078.925
524.070983887,1133.275
524.356750488,1118.4
524.64239502,1073.9
524.928039551,1062.575
525.213806152,1084.375
525.499389648,1074.325
525.784973145,1104.625
526.070617676,1140.25
526.356140137,1112.925
526.641723633,1120.275
526.927307129,1174.775
527.212768555,1190.05
527.498291016,1154.725
527.783752441,1163.75
528.069213867,1136.95
528.354675293,1178.55
528.640014648,1321.55
528.925476074,1397.4
529.21081543,1317.65
529.496154785,1286.325
529.781555176,1260.95
530.066833496,1276.85
530.352050781,1296.75
530.637390137,1277.65
530.922607422,1282.575
531.207824707,1282.5
531.493041992,1263.325
531.778198242,1327.425
532.063354492,1308.0
532.348571777,1259.425
532.633666992,1277.6
532.918762207,1350.8
533.203857422,1422.475
533.488891602,1461.825
533.773925781,1406.7
534.059020996,1390.225
534.343933105,1423.1
534.628967285,1396.075
534.91394043,1406.2
535.198852539,1418.65
535.483703613,1385.3
535.768676758,1336.325
536.053527832,1335.95
536.338317871,1299.65
536.62322998,1240.275
536.90802002,1215.8
537.192810059,1240.025
537.477539062,1317.0
537.762329102,1356.775
538.047058105,1394.8
538.331726074,1434.05
538.616455078,1411.25
538.901123047,1401.025
539.18572998,1437.65
539.470397949,1453.3
539.755004883,1430.225
540.039550781,1398.6
540.32409668,1346.45
540.608703613,1390.225
540.893188477,1486.375
541.17767334,1496.975
541.462158203,1509.05
541.746643066,1453.425
542.031066895,1493.725
542.315429688,1538.1
542.59979248,1537.1
542.884216309,1514.8
543.168579102,1517.9
543.452941895,1522.775
543.737243652,1561.875
544.021484375,1610.425
544.305725098,1603.425
544.590026855,1578.2
544.874267578,1582.075
545.158447266,1663.325
545.442626953,1586.2
545.726806641,1482.9
546.010925293,1520.1
546.29510498,1541.6
546.579162598,1539.05
546.863220215,1574.0
547.147277832,1643.925
547.431335449,1720.575
547.715332031,1779.175
547.999328613,1873.25
548.283325195,1890.6
548.567260742,1748.45
548.851135254,1726.425
549.135070801,1698.125
549.419006348,1596.8
549.702819824,1709.125
549.986755371,1771.575
550.270507812,1724.625
550.554321289,1779.45
550.83807373,1787.275
551.121826172,1744.25
551.405517578,1765.95
551.689331055,1880.1
551.973022461,2106.025
552.256652832,2167.175
552.540344238,2063.65
552.823974609,2061.3
553.107543945,2039.9
553.391174316,2088.775
553.674743652,2146.375
553.958251953,2140.125
554.241821289,2175.275
554.525268555,2088.725
554.808776855,2100.575
555.092285156,2288.825
555.375671387,2373.075
555.659057617,2365.05
555.942504883,2398.45
556.225891113,2420.15
556.509216309,2391.975
556.792541504,2309.425
557.075866699,2360.5
557.359130859,2420.325
557.64239502,2415.05
557.92565918,2514.325
558.208862305,2480.125
558.49206543,2423.575
558.77532959,2443.45
559.058410645,2481.425
559.341552734,2462.225
559.624694824,2515.775
559.907775879,2597.275
560.190856934,2709.975
560.473937988,2701.2
560.756896973,2750.8
561.039978027,2782.85
561.322937012,2747.7
561.605895996,2746.25
561.88885498,2697.125
562.171813965,2705.325
562.454650879,2685.275
562.737548828,2724.825
563.020446777,2803.525
563.303283691,2814.65
563.58605957,2854.05
563.868896484,2876.525
564.151672363,2936.325
564.434387207,2962.15
564.717163086,2940.775
564.99987793,2968.325
565.282531738,3038.85
565.565185547,2982.65
565.847839355,3000.625
566.130432129,3106.3
566.413085938,3080.15
566.695678711,3097.325
566.978149414,3221.175
567.260681152,3351.575
567.543273926,3441.05
567.825744629,3340.9
568.108154297,3386.875
568.390686035,3516.275
568.673095703,3626.475
568.955505371,3665.65
569.237854004,3711.9
569.520202637,3995.275
569.802490234,4214.275
570.084838867,4173.2
570.367126465,4021.125
570.649414062,4024.75
570.93170166,4391.3
571.213928223,4489.2
571.496154785,4240.75
571.778381348,4455.725
572.06048584,4730.85
572.342590332,4264.2
572.624755859,3909.6
572.906860352,3966.65
573.188903809,4663.975
573.470947266,4913.575
573.752990723,4664.275
574.03503418,4788.675
574.317016602,5205.75
574.598937988,4981.375
574.88092041,4852.775
575.162841797,5029.925
575.444763184,4669.525
575.726623535,4412.2
576.008483887,4450.325
576.290344238,4870.3
576.572143555,5076.5
576.853881836,5151.325
577.135681152,5053.85
577.417419434,5087.775
577.699157715,5994.15
577.980895996,6178.525
578.262573242,5523.55
578.544128418,5025.8
578.825866699,4955.875
579.107421875,4654.55
579.388977051,4861.975
579.670593262,5254.475
579.952148438,5086.025
580.233642578,5184.85
580.515197754,5317.675
580.796691895,4980.7
581.078125,5196.8
581.359619141,6729.525
581.640991211,6841.0
581.922363281,5905.125
582.203796387,5969.85
582.485107422,5591.375
582.766418457,5201.45
583.047790527,5020.4
583.329040527,4921.85
583.610290527,4788.975
583.891540527,4885.475
584.172790527,5239.025
584.453918457,5248.675
584.735107422,5300.65
585.016235352,5782.65
585.297363281,5742.8
585.578552246,5547.875
585.859619141,5478.8
586.140625,5253.175
586.421630859,5139.175
586.702697754,5155.5
586.983642578,5391.625
587.264648438,5567.0
587.545654297,5515.35
587.826477051,5445.9
588.107421875,5241.525
588.388305664,5325.975
588.669189453,5388.975
588.950012207,5250.925
589.230834961,5133.4
589.511657715,5248.575
589.792358398,5337.725
590.073120117,5333.625
590.353881836,5311.275
590.63458252,5329.65
590.915283203,5303.325
591.195922852,5318.125
591.4765625,5366.375
591.757202148,5389.125
592.037780762,5378.35
592.31829834,5363.325
592.598937988,5594.65
592.879394531,5781.65
593.159912109,5694.7
593.440429688,5605.475
593.720825195,5606.8
594.001281738,5594.475
594.281677246,5510.525
594.562072754,5515.475
594.842407227,5654.625
595.122802734,5689.1
595.403137207,5657.925
595.683410645,5629.8
595.963623047,5624.8
596.243896484,5603.275
596.524169922,5566.15
596.804382324,5574.525
597.084533691,5633.4
597.364746094,5651.65
597.644836426,5690.625
597.924987793,5666.8
598.205078125,5646.575
598.485107422,5679.35
598.765197754,5797.425
599.045227051,5848.5
599.325195312,5746.625
599.605224609,5699.275
599.885192871,5737.05
600.165100098,5785.525
600.445007324,5748.25
600.724914551,5728.975
601.004760742,5732.1
601.284667969,5795.225
601.56451416,5737.85
601.844238281,5745.725
602.124084473,5758.95
602.403808594,5759.85
602.683532715,5808.95
602.963256836,5776.075
603.242919922,5831.725
603.522583008,5872.75
603.802246094,5833.9
604.081848145,5786.05
604.36138916,5777.125
604.641052246,5827.875
604.920532227,5777.025
605.200073242,5818.075
605.479614258,5833.125
605.759094238,5875.35
606.038574219,5878.25
606.317932129,5820.5
606.597412109,5829.675
606.87677002,5820.775
607.15612793,5850.525
607.435546875,5875.125
607.714782715,5888.575
607.99407959,5837.225
608.273376465,5816.125
608.552612305,5811.35
608.831848145,5853.275
609.111083984,5844.075
609.390258789,5825.475
609.669433594,5843.8
609.948608398,5919.225
610.227722168,5887.075
610.506713867,5784.025
610.785888672,5827.675
611.064880371,5808.825
611.34387207,5824.6
611.622924805,5855.75
611.901916504,5836.625
612.180847168,5802.475
612.459777832,5776.825
612.738647461,5795.425
613.01751709,5765.175
613.296447754,5699.925
613.575317383,5680.7
613.854064941,5632.95
614.132873535,5555.15
614.411621094,5487.95
614.690368652,5440.475
614.969177246,5367.75
615.247802734,5281.45
615.526489258,5293.275
615.805175781,5144.625
616.08380127,5033.25
616.362365723,4958.6
616.640991211,4900.425
616.919555664,4854.75
617.198059082,4966.95
617.4765625,5256.725
617.755126953,5403.175
618.033569336,5433.5
618.311950684,5416.725
618.590454102,5392.525
618.868774414,5404.05
619.147155762,5399.25
619.425598145,5396.4
619.703857422,5400.625
619.982177734,5392.675
620.260498047,5377.975
620.538757324,5361.7
620.816955566,5335.775
621.095214844,5255.35
621.373413086,5298.9
621.651550293,5346.8
621.929748535,5346.975
622.207824707,5361.25
622.485900879,5373.475
622.764038086,5381.05
623.042053223,5414.65
623.320007324,5409.85
623.598083496,5428.05
623.876037598,5419.525
624.153991699,5438.9
624.432006836,5453.6
624.709838867,5465.35
624.987731934,5443.1
625.265563965,5439.025
625.543395996,5448.525
625.821228027,5507.825
626.098999023,5493.925
626.376831055,5573.575
626.654541016,5558.875
626.932250977,5584.55
627.209960938,5635.825
627.487670898,5639.2
627.765319824,5658.125
628.04296875,5667.425
628.320495605,5662.55
628.598083496,5653.725
628.875671387,5704.075
629.153259277,5762.9
629.430725098,5785.575
629.708251953,5779.05
629.985656738,5780.025
630.263122559,5812.75
630.540588379,5822.35
630.817932129,5841.325
631.095275879,5900.05
631.372680664,5917.875
631.649963379,5959.475
631.927246094,5998.775
632.204589844,6037.0
632.481811523,6095.2
632.759033203,6180.85
633.036254883,6203.175
633.313415527,6282.7
633.590576172,6339.225
633.867736816,6452.025
634.144836426,6499.4
634.421875,6554.15
634.698913574,6624.05
634.976013184,6634.25
635.252990723,6732.15
635.529968262,6730.6
635.807006836,6806.275
636.08392334,6753.475
636.360839844,6666.425
636.637756348,6574.25
636.914611816,6546.6
637.191467285,6510.1
637.468261719,6605.275
637.745056152,6576.7
638.021789551,6590.325
638.298583984,6577.175
638.575317383,6623.925
638.851989746,6622.475
639.12878418,6611.825
639.405395508,6587.4
639.682006836,6622.175
639.958618164,6625.35
640.235229492,6589.5
640.511779785,6648.925
640.788330078,6629.025
641.064880371,6622.4
641.341308594,6588.15
641.617797852,6591.3
641.894226074,6571.775
642.170654297,6593.575
642.44708252,6604.025
642.723388672,6561.275
642.999755859,6568.775
643.276123047,6596.125
643.552429199,6571.675
643.828674316,6551.45
644.104919434,6513.875
644.381164551,6509.75
644.657348633,6554.175
644.933532715,6498.5
645.209716797,6507.2
645.485839844,6497.375
645.761901855,6461.85
646.038024902,6458.775
646.314086914,6473.55
646.590087891,6475.0
646.866149902,6485.975
647.142150879,6434.2
647.41809082,6419.275
647.694030762,6412.225
647.969970703,6402.425
648.245788574,6404.225
648.521728516,6373.725
648.797546387,6363.45
649.073303223,6381.9
649.349182129,6342.15
649.624938965,6351.25
649.900634766,6356.325
650.176391602,6324.25
650.452087402,6346.425
650.727783203,6319.375
651.003479004,6315.425
651.279052734,6295.65
651.554626465,6256.1
651.83026123,6251.65
652.105773926,6268.675
652.381286621,6226.225
652.656860352,6242.85
652.932312012,6244.65
653.207763672,6230.2
653.483215332,6263.575
653.758605957,6232.55
654.033935547,6248.775
654.309326172,6232.65
654.584716797,6254.05
654.859985352,6208.475
655.135253906,6261.425
655.410583496,6276.825
655.685791016,7193.85
655.9609375,11222.125
656.236206055,10972.6
656.511291504,7265.075
656.786437988,6360.25
657.061645508,6264.575
657.336669922,6222.875
657.611694336,6268.575
657.886779785,6273.075
658.161804199,6286.875
658.436828613,6247.925
658.711791992,6259.75
658.986755371,6258.275
659.261657715,6251.225
659.536621094,6259.575
659.811401367,6254.35
660.086303711,6277.675
660.36114502,6247.625
660.635864258,6227.95
660.910644531,6290.8
661.185424805,6257.525
661.460205078,6282.175
661.734863281,6274.325
662.009521484,6253.15
662.284179688,6276.175
662.558776855,6294.225
662.833435059,6323.325
663.108032227,6299.925
663.382568359,6282.15
663.657043457,6333.475
663.93157959,6329.8
664.206054688,6302.4
664.48046875,6342.25
664.755004883,6344.675
665.02935791,6357.35
665.303710938,6357.15
665.578125,6391.175
665.852416992,6367.425
666.126708984,6383.05
666.401062012,6365.55
666.675292969,6369.05
666.949462891,6396.025
667.223754883,6372.75
667.497924805,6401.125
667.772094727,6387.675
668.046264648,6363.075
668.3203125,6434.9
668.594421387,6415.4
668.868469238,6422.875
669.14251709,6403.6
669.416503906,6435.575
669.690551758,6413.25
669.964477539,6448.925
670.23840332,6445.25
670.512329102,6414.225
670.786254883,6396.675
671.060058594,6433.9
671.333984375,6453.05
671.607788086,6457.5
671.881530762,6436.875
672.155334473,6474.2
672.429077148,6476.725
672.702758789,6460.575
672.97644043,6433.525
673.25012207,6437.1
673.523742676,6411.825
673.797302246,6395.6
674.070922852,6475.875
674.344482422,6472.275
674.618041992,6480.175
674.891601562,6454.1
675.165100098,6473.55
675.438476562,6466.075
675.711975098,6464.825
675.985412598,6453.725
676.258789062,6438.975
676.532165527,6453.375
676.805480957,6421.5
677.078796387,6450.1
677.352111816,6460.425
677.625366211,6419.775
677.898620605,6412.625
678.171875,6485.25
678.445007324,6446.375
678.718200684,6440.3
678.991394043,6428.375
679.264404297,6417.625
679.537536621,6437.5
679.81060791,6452.975
680.083679199,6431.525
680.356689453,6429.15
680.629699707,6414.075
680.902648926,6406.075
681.175598145,6436.575
681.448547363,6458.1
681.721435547,6437.125
681.99420166,6418.725
682.267150879,6405.1
682.539916992,6431.7
682.812744141,6444.975
683.085510254,6394.075
683.358215332,6409.3
683.63092041,6401.375
683.903625488,6387.125
684.176330566,6359.625
684.448913574,6343.05
684.721557617,6331.375
684.99420166,6389.775
685.266662598,6371.55
685.539245605,6362.9
685.811767578,6364.45
686.084289551,6375.7
686.356689453,6363.9
686.629150391,6391.95
686.901550293,6393.1
687.17401123,6385.525
687.446350098,6393.725
687.718688965,6400.95
687.990966797,6439.4
688.263305664,6428.7
688.535522461,6373.525
688.807739258,6372.55
689.079956055,6386.975
689.352172852,6420.95
689.624328613,6388.55
689.896484375,6416.75
690.168518066,6424.525
690.440612793,6449.625
690.71270752,6467.0
690.984741211,6461.75
691.256713867,6458.1
691.528747559,6428.225
691.800720215,6435.175
692.072631836,6459.85
692.344543457,6468.95
692.616394043,6453.05
692.888244629,6445.8
693.160095215,6447.575
693.431945801,6466.825
693.703674316,6460.9
693.975463867,6434.975
694.247131348,6475.125
694.518859863,6435.675
694.790588379,6475.55
695.062255859,6443.775
695.33380127,6436.925
695.60546875,6426.85
695.87701416,6447.325
696.148498535,6440.225
696.42010498,6433.075
696.691589355,6462.5
696.96307373,6469.775
697.234558105,6469.925
697.50592041,6483.425
697.777282715,6465.275
698.048706055,6460.5
698.320068359,6492.525
698.591308594,6454.675
698.862670898,6460.3
699.133972168,6506.075
699.405151367,6445.375
699.676391602,6475.1
699.947570801,6464.6
700.21875,6480.05
700.489868164,6484.075
700.761047363,6465.125
701.032104492,6513.45
701.303100586,6445.6
701.57421875,6517.2
701.845214844,6498.25
702.116149902,6533.2
702.387207031,6500.225
702.65814209,6504.725
702.928955078,6514.85
703.199951172,6501.65
703.47076416,6471.475
703.741577148,6451.9
704.012451172,6482.175
704.28314209,6499.5
704.553955078,6485.95
704.824707031,6499.1
705.095397949,6493.7
705.366027832,6499.65
705.63671875,6483.5
705.907348633,6441.275
706.17791748,6469.525
706.448486328,6476.025
706.719055176,6512.975
706.989562988,6494.65
707.260131836,6487.325
707.530517578,6524.875
707.800964355,6527.4
708.071411133,6464.25
708.341796875,6470.425
708.612182617,6477.375
708.882446289,6434.2
709.152893066,6442.025
709.423156738,6450.35
709.693359375,6432.25
709.963623047,6444.725
710.233825684,6486.925
710.503967285,6458.8
710.774169922,6449.625
711.044311523,6423.65
711.31439209,6409.55
711.584533691,6423.1
711.854553223,6441.625
712.124572754,6431.675
712.39465332,6397.975
712.664611816,6451.45
712.934509277,6470.825
713.204467773,6412.15
713.474365234,6436.9
713.74420166,6413.05
714.014099121,6424.725
714.283874512,6415.0
714.553710938,6443.375
714.823486328,6418.3
715.093200684,6392.65
715.362915039,6404.075
715.632629395,6400.2
715.902282715,6390.45
716.171875,6383.725
716.441589355,6404.4
716.711181641,6365.45
716.980712891,6354.025
717.250244141,6370.8
717.519775391,6385.225
717.78918457,6384.125
718.058654785,6406.225
718.328125,6417.275
718.597473145,6369.725
718.866882324,6359.1
719.136230469,6402.575
719.405578613,6400.4
719.674865723,6408.675
719.944152832,6403.975
720.213439941,6372.6
720.48260498,6371.725
720.75177002,6413.975
721.020996094,6402.65
721.290100098,6402.2
721.559204102,6388.75
721.828308105,6422.45
722.097351074,6403.15
722.366455078,6385.5
722.635437012,6377.45
722.904418945,6362.1
723.173400879,6389.3
723.442321777,6401.225
723.711181641,6350.0
723.980102539,6362.725
724.248962402,6390.5
724.51776123,6339.85
724.786560059,6364.975
725.055358887,6367.2
725.324035645,6356.275
725.592834473,6377.975
725.86151123,6361.75
726.130187988,6393.15
726.398803711,6353.75
726.667419434,6376.85
726.935974121,6365.2
727.204528809,6340.625
727.473083496,6328.775
727.741638184,6312.9
728.010070801,6288.5
728.278564453,6289.5
728.546936035,6300.65
728.815368652,6224.1
729.08380127,6177.25
729.352111816,6162.825
729.620361328,6110.95
729.88873291,6150.225
730.156982422,6167.225
730.425231934,6174.45
730.693481445,6140.45
730.961669922,6202.15
731.229797363,6227.025
731.49798584,6256.2
731.766113281,6302.75
732.034118652,6361.075
732.302246094,6388.825
732.570251465,6435.65
732.838256836,6442.45
733.106262207,6499.525
733.374145508,6513.875
733.642089844,6554.2
733.909973145,6601.275
734.177856445,6668.975
734.445678711,6719.1
734.713562012,6782.05
734.981323242,6796.0
735.249084473,6830.225
735.516845703,6911.55
735.784545898,6949.975
736.052185059,6982.8
736.319885254,7092.65
736.587524414,7119.325
736.855102539,7124.475
737.122619629,7267.725
737.390197754,7254.9
737.657714844,7335.65
737.925170898,7376.25
738.192749023,7478.875
738.460144043,7526.7
738.727539062,7558.875
738.994995117,7640.8
739.262329102,7693.175
739.529663086,7782.4
739.79699707,7827.3
740.06427002,7883.2
740.331481934,7952.15
740.598754883,7977.925
740.865905762,7969.875
741.133056641,8093.825
741.40032959,8114.2
741.667358398,8194.125
741.934448242,8198.225
742.201599121,8201.7
742.468566895,8311.0
742.735534668,8336.325
743.002563477,8373.125
743.26953125,8336.275
743.536437988,8387.625
743.803405762,8472.325
744.0703125,8455.625
744.337097168,8545.65
744.604003906,8497.675
744.870727539,8550.925
745.137512207,8577.375
745.40423584,8596.675
745.670959473,8579.3
745.93762207,8616.175
746.204284668,8666.4
746.470947266,8666.975
746.737548828,8603.925
747.004089355,8653.925
747.270751953,8695.975
747.53717041,8726.7
747.803710938,8686.3
748.070251465,8681.7
748.336608887,8678.675
748.603027344,8657.75
748.869445801,8673.425
749.135803223,8663.625
749.402099609,8672.3
749.668457031,8712.55
749.934753418,8674.7
750.20098877,8647.525
750.467224121,8695.05
750.733459473,8660.8
750.999572754,8655.375
751.26574707,8607.55
751.531860352,8652.425
751.797912598,8622.65
752.064025879,8554.875
752.330078125,8555.875
752.596069336,8546.45
752.862060547,8512.825
753.127990723,8523.05
753.393920898,8499.675
753.659912109,8498.125
753.925720215,8528.725
754.19152832,8487.525
754.457397461,8488.45
754.723144531,8469.775
754.988952637,8445.55
755.254699707,8459.95
755.520385742,8493.525
755.786071777,8460.125
756.051696777,8479.725
756.317382812,8409.35
756.582946777,8395.9
756.848510742,8411.6
757.114074707,8366.95
757.379577637,8352.925
757.645080566,8436.075
757.910583496,8381.075
758.175964355,8331.15
758.441345215,8295.2
758.706848145,8212.95
758.972106934,8234.375
759.237426758,8280.375
759.502807617,8306.55
759.768005371,8297.875
760.03326416,8259.15
760.298522949,8223.125
760.563659668,8215.7
760.828857422,8193.925
761.093994141,8198.3
761.359130859,8158.95
761.624206543,8132.225
761.889282227,8098.425
762.15423584,8094.775
762.419250488,8091.875
762.684265137,8063.925
762.949157715,8090.55
763.214050293,8081.975
763.479003906,8082.425
763.743835449,8081.475
764.008666992,8050.375
764.2734375,8073.475
764.538208008,8096.675
764.802978516,8108.225
765.067687988,8082.875
765.332397461,8086.65
765.597045898,8059.0
765.861694336,8031.375
766.126342773,7996.875
766.390930176,7980.575
766.655395508,7974.425
766.920043945,7933.675
767.184509277,7939.6
767.448974609,7951.5
767.713439941,7945.375
767.977783203,7930.025
768.2421875,7980.65
768.506591797,7912.45
768.770874023,7995.025
769.03515625,7954.25
769.299499512,7928.55
769.563720703,7945.425
769.827941895,7897.45
770.092163086,7912.0
770.356323242,7901.4
770.620483398,7929.45
770.88458252,7951.4
771.148681641,7937.075
771.412719727,7901.275
771.676757812,7929.05
771.940734863,7869.775
772.204711914,7875.625
772.468688965,7863.0
772.73260498,7880.45
772.996459961,7913.275
773.260314941,7028.775
773.524169922,923.85
773.787963867,147.175
774.051696777,123.0
774.315551758,121.225
774.579223633,122.4
774.842895508,120.1
775.106567383,123.25
775.370239258,119.65
775.633789062,124.9
775.897399902,125.9
776.160949707,115.375
776.424499512,119.6
776.687988281,125.1
776.951477051,124.475
777.214904785,122.075
777.47833252,120.9
