191.299911499,100.15
191.603515625,103.225
191.907119751,97.35
192.210693359,104.275
192.514251709,96.2
192.817810059,104.625
193.121368408,104.325
193.42489624,106.425
193.728408813,97.975
194.031936646,100.875
194.33543396,93.25
194.638916016,109.875
194.94241333,94.175
195.245880127,97.075
195.549331665,94.975
195.852767944,103.525
196.156204224,203.3
196.459625244,203.175
196.763015747,204.55
197.066436768,210.75
197.369812012,202.6
197.673187256,206.075
197.9765625,201.975
198.279922485,203.525
198.583251953,197.6
198.886581421,202.675
199.18989563,208.725
199.493209839,201.575
199.79649353,195.8
200.09979248,210.725
200.403076172,201.0
200.706314087,203.4
201.009567261,206.025
201.312820435,204.35
201.616027832,196.3
201.919235229,189.475
202.222457886,195.8
202.525634766,198.3
202.828826904,193.825
203.132003784,192.25
203.435150146,191.475
203.738296509,191.7
204.041412354,194.075
204.344558716,199.875
204.647659302,199.075
204.950759888,198.175
205.253845215,196.425
205.556930542,197.15
205.859985352,196.4
206.163024902,198.675
206.466079712,200.375
206.769104004,206.95
207.072113037,196.825
207.375137329,201.3
207.678131104,197.25
207.981109619,202.8
208.284088135,196.35
208.587036133,200.0
208.889984131,201.1
209.19291687,199.9
209.495849609,206.6
209.798751831,201.9
210.101654053,201.725
210.404556274,203.925
210.707427979,202.125
211.010269165,209.7
211.31312561,208.375
211.615982056,210.55
211.918807983,207.05
212.221618652,210.175
212.524429321,204.625
212.827224731,213.2
213.130004883,211.325
213.432769775,210.6
213.735534668,206.9
214.038269043,216.875
214.341003418,216.15
214.643737793,220.975
214.946456909,222.65
215.249145508,223.4
215.551834106,221.6
215.854507446,225.85
216.157165527,223.55
216.45980835,226.25
216.762451172,228.175
217.065078735,230.925
217.36769104,228.975
217.670303345,233.175
217.972885132,235.75
218.275466919,242.175
218.578048706,236.4
218.880599976,245.8
219.183120728,241.175
219.485656738,247.0
219.788192749,257.9
220.090682983,269.225
220.393188477,290.7
220.695663452,323.7
220.998138428,347.65
221.300582886,393.625
221.603042603,427.425
221.905487061,480.85
222.207901001,545.125
222.510299683,602.15
222.812728882,686.95
223.115097046,784.6
223.41746521,875.475
223.719848633,964.775
224.022171021,1063.325
224.324508667,1183.4
224.626846313,1302.175
224.929168701,1413.25
225.231460571,1520.725
225.533737183,1637.7
225.836013794,1755.9
226.138290405,1863.4
226.440536499,1964.75
226.742767334,2081.4
227.044998169,2167.6
227.347213745,2263.05
227.649429321,2354.225
227.951629639,2430.425
228.253799438,2488.525
228.555953979,2579.3
228.858123779,2655.35
229.160263062,2706.325
229.462371826,2735.7
229.764511108,2787.975
230.066619873,2807.325
230.36869812,2852.225
230.670776367,2893.425
230.972854614,2927.375
231.274902344,2974.55
231.576950073,3058.725
231.878967285,3077.475
232.180999756,3114.725
232.48298645,3174.8
232.784988403,3210.275
233.086975098,3276.65
233.388946533,3307.95
233.69090271,3366.25
233.992858887,3407.15
234.294769287,3405.425
234.596694946,3471.125
234.898605347,3520.475
235.200500488,3527.125
235.502380371,3564.275
235.804244995,3594.6
236.106109619,3587.05
236.407958984,3601.275
236.709777832,3642.05
237.011581421,3657.775
237.313400269,3635.55
237.615203857,3657.85
237.916976929,3683.875
238.21875,3695.05
238.520507812,3692.0
238.822250366,3718.525
239.12399292,3700.425
239.425704956,3730.8
239.727401733,3698.925
240.02911377,3739.8
240.330780029,3709.375
240.632446289,3754.5
240.93409729,3748.525
241.23576355,3763.125
241.537384033,3760.075
241.839004517,3798.25
242.140594482,3803.85
242.442199707,3834.675
242.743774414,3849.525
243.045333862,3864.4
243.346923828,3885.35
243.648452759,3920.925
243.949966431,3925.675
244.251495361,3949.85
244.552993774,3976.35
244.854492188,3986.15
245.155975342,4008.65
245.457443237,4034.35
245.758880615,4039.025
246.060333252,4056.4
246.36177063,4065.35
246.66317749,4086.625
246.964569092,4100.125
247.265945435,4126.675
247.567337036,4140.375
247.86869812,4202.4
248.170059204,4217.525
248.471389771,4224.775
248.772705078,4299.625
249.074035645,4341.8
249.375335693,4370.825
249.676620483,4434.65
249.977890015,4484.075
250.279159546,4571.4
250.58039856,4620.175
250.881637573,4678.95
251.182876587,4748.875
251.484069824,4817.675
251.785263062,4897.55
252.086456299,5002.1
252.387619019,5041.525
252.688781738,5115.7
252.989929199,5175.1
253.291061401,5236.8
253.592178345,5340.675
253.893280029,5403.125
254.194366455,5477.8
254.49546814,5478.425
254.796524048,5516.8
255.097579956,5608.2
255.398620605,5643.175
255.699645996,5679.475
256.000640869,5702.1
256.30166626,5735.675
256.602661133,5788.425
256.903656006,5769.325
257.204589844,5815.675
257.505523682,5784.325
257.80645752,5813.625
258.107391357,5802.05
258.408294678,5794.6
258.709228516,5784.875
259.010070801,5744.75
259.310943604,5765.5
259.611846924,5731.15
259.912658691,5685.375
260.213500977,5666.875
260.514343262,5644.425
260.815124512,5582.9
261.115936279,5582.45
261.416717529,5557.325
261.717468262,5549.9
262.018218994,5534.85
262.318969727,5553.525
262.619689941,5584.05
262.920410156,5659.4
263.221130371,5714.85
263.521789551,5740.975
263.822479248,5811.65
264.123138428,5873.55
264.42376709,5906.4
264.72442627,5921.425
265.025054932,5945.875
265.325622559,5991.95
265.626251221,6002.85
265.926818848,5994.05
266.227386475,5966.875
266.527954102,5962.925
266.828460693,5989.525
267.12902832,5920.125
267.429534912,5930.875
267.730010986,5909.175
268.030517578,5854.1
268.330993652,5862.8
268.631439209,5829.4
268.931915283,5855.45
269.232299805,5836.55
269.532745361,5836.7
269.8331604,5823.275
270.133544922,5813.675
270.433929443,5841.25
270.734313965,5827.0
271.034637451,5878.725
271.334991455,5881.875
271.635314941,5942.625
271.935638428,5974.8
272.235931396,6044.625
272.536254883,6104.625
272.836486816,6205.525
273.136749268,6282.625
273.437011719,6400.575
273.737213135,6515.3
274.037445068,6640.55
274.337677002,6754.0
274.6378479,6859.075
274.938049316,7029.375
275.238220215,7133.975
275.538360596,7296.65
275.838500977,7409.45
276.138641357,7607.45
276.438751221,7684.275
276.738830566,7805.025
277.03894043,7895.35
277.338989258,8062.325
277.639038086,8164.4
277.939056396,8235.925
278.239105225,8315.375
278.539093018,8464.675
278.839141846,8518.25
279.139129639,8620.75
279.439086914,8717.075
279.739044189,8804.6
280.039001465,8896.7
280.338928223,8953.875
280.63885498,9017.375
280.938781738,9107.175
281.238647461,9161.675
281.538513184,9170.825
281.838409424,9209.225
282.138244629,9278.375
282.438079834,9314.525
282.737945557,9343.575
283.037719727,9369.275
283.337524414,9445.325
283.637298584,9447.8
283.937072754,9464.6
284.236816406,9481.525
284.536560059,9476.475
284.836303711,9461.4
285.136016846,9575.525
285.43572998,9613.475
285.735412598,9539.225
286.035064697,9554.45
286.334747314,9641.8
286.634368896,9606.2
286.933990479,9540.35
287.233642578,9458.475
287.533203125,9501.425
287.832824707,9397.7
288.132385254,9292.2
288.431945801,9134.85
288.731506348,8992.2
289.031036377,8790.7
289.330566406,8662.4
289.630065918,8639.6
289.92956543,8602.35
290.229034424,8703.375
290.528503418,8901.875
290.827941895,9085.2
291.127380371,9286.075
291.42678833,9393.9
291.726226807,9560.45
292.025604248,9602.65
292.324981689,9614.825
292.624359131,9643.475
292.923736572,9651.375
293.223052979,9672.775
293.522369385,9645.05
293.821685791,9618.725
294.12097168,9575.725
294.420257568,9531.5
294.719543457,9501.325
295.018768311,9476.525
295.318023682,9416.0
295.617248535,9347.8
295.916442871,9275.6
296.215667725,9196.8
296.514862061,9009.25
296.813995361,8745.575
297.11315918,8503.825
297.412322998,8358.65
297.711425781,8327.95
298.010559082,8497.075
298.309631348,8767.15
298.608734131,8990.425
298.907806396,9187.875
299.206848145,9385.125
299.505889893,9423.425
299.804901123,9606.5
300.103912354,9657.625
300.402954102,9737.75
300.701904297,9826.3
301.00088501,9875.35
301.299835205,9971.65
301.5987854,9952.4
301.897735596,10105.4
302.196624756,10135.475
302.495513916,10215.175
302.794403076,10255.1
303.093292236,10289.9
303.392120361,10386.925
303.690979004,10487.225
303.989837646,10506.95
304.288604736,10573.475
304.587402344,10575.4
304.886199951,10624.15
305.184967041,10654.875
305.483734131,10727.0
305.782501221,10765.275
306.081176758,10766.5
306.37991333,10815.775
306.678619385,10798.3
306.977294922,10805.625
307.275970459,10811.15
307.574645996,10838.825
307.873260498,10804.4
308.171875,10838.6
308.470489502,10806.5
308.769104004,10731.475
309.067687988,10721.775
309.366241455,10749.95
309.664794922,10666.275
309.963348389,10672.5
310.261871338,10699.175
310.560394287,10699.4
310.858856201,10712.75
311.157348633,10755.175
311.455810547,10739.65
311.754272461,10767.8
312.052703857,10857.85
312.351135254,10895.925
312.649536133,10855.275
312.947937012,10816.475
313.246307373,10876.725
313.544647217,10859.525
313.843017578,10788.175
314.141387939,10799.175
314.439697266,10797.425
314.738006592,10706.7
315.036315918,10623.225
315.334564209,10537.475
315.6328125,10468.775
315.931091309,10396.8
316.229309082,10242.8
316.527526855,10087.425
316.825744629,10052.325
317.123901367,9920.575
317.422088623,9858.5
317.720245361,9898.25
318.0184021,9883.75
318.316497803,9937.7
318.614654541,9954.025
318.912750244,10050.225
319.21081543,10055.525
319.50894165,10084.625
319.806945801,10068.25
320.104980469,10096.15
320.403045654,10050.9
320.701049805,10032.5
320.999023438,9992.15
321.297027588,9926.625
321.595001221,9907.6
321.892913818,9876.95
322.190887451,9790.675
322.488830566,9766.125
322.786712646,9654.525
323.084625244,9592.2
323.382507324,9539.525
323.680358887,9453.175
323.978210449,9349.275
324.276062012,9289.275
324.573852539,9203.275
324.871643066,9157.45
325.169464111,9104.125
325.467224121,9002.675
325.764984131,8936.125
326.062744141,8826.1
326.360473633,8736.925
326.658203125,8671.175
326.955871582,8567.025
327.253570557,8521.55
327.551239014,8439.4
327.848907471,8360.325
328.146514893,8280.7
328.444152832,8203.7
328.741790771,8144.95
329.039367676,8067.425
329.336914062,7987.375
329.634521484,7934.275
329.932067871,7865.25
330.229553223,7781.0
330.527160645,7704.175
330.824615479,7643.85
331.12210083,7546.15
331.419586182,7412.975
331.717041016,7368.9
332.014465332,7262.2
332.311920166,7243.625
332.609313965,7170.825
332.906707764,7160.45
333.204101562,7124.2
333.501495361,7137.275
333.798828125,7187.325
334.096160889,7225.125
334.39352417,7301.45
334.690795898,7366.5
334.988098145,7407.8
335.285400391,7479.675
335.582641602,7439.925
335.879882812,7506.025
336.177124023,7548.075
336.474334717,7611.575
336.77154541,7607.875
337.068725586,7597.75
337.365905762,7628.4
337.66305542,7620.25
337.960205078,7690.65
338.257324219,7678.1
338.554443359,7695.75
338.8515625,7722.3
339.148590088,7698.625
339.445648193,7721.65
339.742736816,7667.025
340.039764404,7663.7
340.336761475,7615.375
340.63381958,7559.125
340.930755615,7502.575
341.227722168,7431.175
341.524688721,7336.875
341.821624756,7290.925
342.118560791,7289.875
342.415496826,7431.975
342.712402344,7565.8
343.009246826,7705.25
343.306121826,7862.8
343.602966309,7887.775
343.899810791,8019.975
344.196624756,8142.675
344.493438721,8148.7
344.79019165,8195.3
345.086975098,8228.65
345.383758545,8299.55
345.680480957,8280.125
345.977203369,8287.7
346.273956299,8351.725
346.570617676,8345.825
346.86730957,8358.225
347.163970947,8311.6
347.460601807,8382.775
347.757232666,8357.0
348.053894043,8367.0
348.350463867,8273.9
348.647064209,8274.2
348.943634033,8248.8
349.24017334,8247.625
349.536712646,8204.025
349.833251953,8193.175
350.129760742,8155.825
350.426208496,8129.825
350.722747803,8114.375
351.019195557,8102.925
351.315612793,8034.725
351.612060547,8012.625
351.908508301,7939.5
352.204864502,7891.825
352.501281738,7841.65
352.797637939,7743.225
353.093963623,7651.6
353.390319824,7576.525
353.686645508,7485.075
353.982940674,7381.3
354.27923584,7356.075
354.575531006,7284.55
354.871765137,7265.275
355.167999268,7232.0
355.464233398,7248.9
355.760437012,7259.775
356.056640625,7238.125
356.352813721,7255.075
356.648956299,7232.7
356.945129395,7260.25
357.241271973,7232.35
357.537384033,7297.0
357.833496094,7216.45
358.129577637,7192.55
358.425628662,7161.725
358.721679688,7118.85
359.017730713,7109.275
359.313720703,7036.375
359.609710693,7017.825
359.905761719,6923.675
360.201721191,6890.95
360.497650146,6841.05
360.793609619,6792.75
361.089538574,6714.725
361.385437012,6607.375
361.681365967,6556.875
361.977233887,6500.1
362.273071289,6408.75
362.568908691,6296.575
362.864746094,6172.375
363.160552979,6020.725
363.456359863,5804.425
363.752166748,5645.575
364.047912598,5545.15
364.343658447,5515.45
364.639434814,5557.95
364.935119629,5581.525
365.230834961,5629.85
365.526550293,5702.075
365.822174072,5698.25
366.117858887,5711.675
366.413482666,5755.0
366.709075928,5778.975
367.004730225,5677.675
367.300292969,5664.575
367.595855713,5712.725
367.891448975,5597.275
368.186981201,5454.025
368.482513428,5431.475
368.778015137,5400.375
369.073547363,5366.7
369.36895752,5372.875
369.664428711,5232.175
369.95993042,5137.3
370.255310059,5066.8
370.550720215,5022.375
370.846160889,4999.425
371.14151001,4933.825
371.436859131,4928.775
371.73223877,4886.95
372.027557373,4852.225
372.322875977,4767.425
372.618164062,4737.875
372.913482666,4697.675
373.208709717,4680.925
373.503967285,4609.15
373.799194336,4555.125
374.094421387,4551.95
374.389648438,4524.65
374.684844971,4504.4
374.979980469,4549.35
375.275146484,4568.25
375.570281982,4572.925
375.865386963,4581.6
376.160522461,4511.55
376.455596924,4546.3
376.750640869,4647.025
377.045715332,4655.1
377.340759277,4690.775
377.635772705,4758.875
377.93081665,4787.5
378.225769043,4872.175
378.520751953,4917.15
378.815734863,4866.65
379.110656738,5063.425
379.405548096,5243.55
379.700500488,5063.15
379.995391846,4818.025
380.290252686,4881.85
380.585083008,4989.725
380.879974365,5032.9
381.17477417,4924.375
381.469543457,4880.3
381.764404297,4842.75
382.059143066,4872.325
382.353912354,5009.85
382.648651123,5104.15
382.943389893,5040.025
383.238067627,4849.575
383.532775879,4867.9
383.827484131,4785.225
384.12210083,4790.15
384.416778564,4740.35
384.711425781,4612.7
385.006011963,4646.825
385.300628662,4658.9
385.595184326,4731.75
385.88973999,4826.15
386.184295654,4955.2
386.478820801,5021.8
386.77331543,5131.15
387.067840576,5255.175
387.362335205,5355.925
387.656768799,5440.425
387.951202393,5473.075
388.245635986,5553.65
388.540039062,5647.15
388.834472656,5704.05
389.128875732,5595.15
389.423187256,5343.8
389.717559814,5278.225
390.011871338,5384.7
390.306182861,5430.85
390.600463867,5447.575
390.894775391,5509.55
391.189025879,5563.375
391.48324585,5560.175
391.777526855,5578.35
392.071685791,5829.15
392.365875244,5951.225
392.660064697,6001.45
392.95425415,6389.6
393.248382568,6358.7
393.542510986,5831.925
393.836608887,5654.025
394.130706787,5654.425
394.424804688,5568.75
394.71887207,5723.725
395.012878418,5676.275
395.306915283,5581.225
395.600921631,5503.15
395.894927979,5457.6
396.188903809,5507.975
396.482879639,5526.7
396.776794434,5758.3
397.070739746,5696.3
397.364654541,5716.1
397.658538818,6165.225
397.952423096,6168.3
398.246307373,6144.5
398.540100098,6753.675
398.833953857,6614.4
399.127746582,6039.6
399.421508789,6067.8
399.715301514,6021.575
400.009063721,5905.675
400.30279541,5733.625
400.596496582,5623.625
400.890258789,5824.575
401.183929443,5927.55
401.47756958,5804.45
401.771240234,5521.325
402.064880371,5541.025
402.35848999,5603.875
402.652130127,5476.45
402.945678711,5564.85
403.239257812,5494.8
403.532775879,5437.125
403.82635498,5496.15
404.119842529,5419.975
404.413360596,5379.35
404.706848145,5442.95
405.000274658,5361.9
405.293762207,5453.3
405.587188721,5516.35
405.880584717,5343.875
406.17401123,5133.325
406.467407227,4900.025
406.760742188,4923.475
407.054107666,4965.6
407.347442627,4859.2
407.640716553,4857.075
407.934051514,4928.525
408.227325439,4985.65
408.520568848,5233.825
408.813842773,5344.875
409.107086182,5135.675
409.400238037,5059.425
409.693450928,4965.725
409.986633301,5121.025
410.279754639,5025.65
410.572875977,4692.925
410.86605835,4616.225
411.159118652,4636.35
411.452209473,4642.775
411.745330811,4487.5
412.038360596,4414.1
412.331390381,4430.475
412.624420166,4468.725
412.917388916,4378.575
413.210388184,4181.4
413.503387451,4144.625
413.796295166,4013.975
414.089233398,3849.15
414.382141113,3738.075
414.675048828,3726.6
414.967926025,3767.15
415.260803223,3715.55
415.55368042,3724.025
415.846466064,3679.85
416.139282227,3787.05
416.432098389,3906.4
416.724853516,3919.675
417.017608643,3849.4
417.31036377,3850.0
417.603088379,4018.65
417.895782471,3967.4
418.188476562,3921.625
418.481140137,4000.65
418.773803711,4069.55
419.066436768,4013.175
419.359039307,4123.825
419.651641846,4126.825
419.944244385,4116.15
420.236816406,4096.0
420.529327393,4361.05
420.821899414,4428.7
421.114379883,4317.325
421.406860352,4629.1
421.699371338,4882.375
421.991821289,4833.225
422.284240723,4616.35
422.576721191,4420.55
422.869110107,4310.775
423.161468506,4248.325
423.453857422,4300.45
423.74621582,4152.7
424.038543701,4000.325
424.330871582,3972.65
424.623168945,3882.425
424.915435791,4057.9
425.207702637,4008.65
425.499969482,3962.85
425.792205811,3872.075
426.084411621,3588.225
426.376617432,3692.675
426.668762207,3775.175
426.9609375,3612.875
427.253082275,3774.15
427.545196533,4215.425
427.837310791,3917.25
428.129425049,3587.775
428.421447754,3819.3
428.713531494,3829.0
429.005554199,3808.575
429.297576904,3835.05
429.589599609,4330.575
429.881561279,4689.15
430.173522949,4432.775
430.465484619,4378.05
430.757415771,4475.75
431.049316406,4190.675
431.341186523,3933.175
431.633117676,3808.8
431.924957275,3471.975
432.21673584,3355.575
432.508636475,3510.925
432.800415039,3540.575
433.092163086,3419.5
433.383972168,3386.05
433.675689697,4196.975
433.967437744,4769.25
434.259155273,3669.225
434.550872803,3320.375
434.842498779,3377.725
435.134185791,3515.15
435.425842285,3537.05
435.717437744,3460.0
436.009063721,3236.525
436.30065918,3394.375
436.592224121,3799.325
436.883758545,3562.375
437.175323486,3270.5
437.466827393,3238.2
437.758331299,3246.875
438.049804688,3284.25
438.341247559,3341.9
438.63269043,3452.4
438.924163818,3419.275
439.215515137,3371.15
439.50692749,3268.625
439.798309326,3281.825
440.089660645,3287.35
440.380981445,3180.8
440.672332764,3186.925
440.963623047,3498.5
441.254882812,3995.625
441.546173096,4220.575
441.837402344,3904.275
442.128631592,3729.125
442.41986084,3690.125
442.711029053,3555.025
443.002197266,3627.675
443.293365479,3847.7
443.584503174,3989.575
443.875610352,3951.525
444.166717529,3642.85
444.457794189,3714.2
444.748840332,3695.0
445.039916992,3638.375
445.330932617,3757.625
445.621948242,3575.9
445.912963867,3358.225
446.203918457,3606.2
446.494812012,3880.65
446.785827637,3650.375
447.076721191,3444.3
447.367584229,3403.25
447.658447266,3375.725
447.949371338,3449.75
448.24017334,3303.875
448.530975342,3232.3
448.821838379,3417.85
449.112579346,3502.0
449.40335083,3418.7
449.694152832,3471.425
449.984863281,3465.4
450.27557373,3375.65
450.56628418,3447.8
450.856933594,3482.125
451.147583008,3297.125
451.438262939,3173.625
451.728881836,3398.725
452.019470215,3518.75
452.310089111,3272.3
452.600646973,3309.125
452.891174316,3366.3
453.181732178,3166.1
453.472229004,3011.9
453.762695312,3142.95
454.053222656,3193.9
454.343658447,3023.0
454.634063721,2953.525
454.924530029,3148.025
455.214935303,3314.5
455.505279541,3399.825
455.795715332,3243.4
456.086029053,2998.425
456.376312256,3007.85
456.666687012,3038.65
456.956939697,3144.875
457.247192383,3143.325
457.537445068,3238.125
457.827728271,3448.225
458.117919922,3366.45
458.408081055,3277.525
458.698303223,3476.825
458.988433838,3415.0
459.278564453,3190.1
459.568725586,3523.8
459.858825684,3653.575
460.148864746,3285.15
460.438995361,3252.15
460.729034424,3312.7
461.019042969,3345.425
461.309082031,3541.575
461.599060059,3406.5
461.889007568,2899.45
462.179016113,2683.975
462.468933105,2956.825
462.75881958,3089.675
463.048736572,2803.35
463.338592529,3105.1
463.628448486,3503.475
463.918365479,3165.625
464.2081604,3362.45
464.497924805,3323.025
464.787780762,3474.3
465.077514648,3809.05
465.367218018,3373.2
465.657012939,3600.175
465.946685791,4069.475
466.236358643,3616.425
466.526092529,3017.0
466.815734863,3005.75
467.105316162,2909.675
467.394927979,2962.375
467.684570312,2799.125
467.974121094,2899.95
468.263671875,3013.375
468.553222656,2773.9
468.842773438,2669.125
469.132232666,2532.475
469.42175293,2560.925
469.711212158,2524.275
470.000640869,2391.2
470.290100098,2443.325
470.579498291,2506.2
470.868835449,2504.25
471.158294678,2452.225
471.447601318,2447.7
471.736907959,2518.075
472.026275635,2585.725
472.315551758,2574.025
472.604797363,2561.425
472.894104004,2719.075
473.183319092,2826.275
473.47253418,2815.55
473.761779785,2812.725
474.05090332,2751.675
474.340087891,2675.375
474.629241943,2613.9
474.918365479,2805.275
475.207427979,3116.875
475.496551514,3137.05
475.785614014,2838.375
476.074645996,2612.0
476.363708496,2730.975
476.652679443,2871.25
476.941650391,2679.625
477.230682373,2497.25
477.519622803,2511.95
477.808502197,2674.8
478.097412109,2991.125
478.386352539,2920.0
478.675201416,2618.825
478.964050293,2509.3
479.25289917,2727.2
479.541717529,2786.85
479.830474854,2598.625
480.11932373,3001.05
480.408050537,3206.35
480.696777344,2774.525
480.985534668,2617.025
481.274200439,2721.05
481.562866211,3012.1
481.851593018,3040.1
482.140197754,2975.0
482.428833008,2795.775
482.717468262,2544.425
483.006011963,2584.825
483.294586182,2726.325
483.5831604,2771.625
483.871673584,2613.2
484.16015625,2781.575
484.448699951,3061.525
484.7371521,3098.7
485.02557373,3101.825
485.314025879,2807.125
485.602416992,4355.95
485.890777588,15256.575
486.179199219,13672.125
486.467559814,3687.85
486.755859375,2684.05
487.044219971,3114.55
487.332519531,3332.275
487.620758057,2870.3
487.908966064,2566.975
488.197265625,2327.575
488.485473633,2221.75
488.773651123,2358.425
489.061859131,2357.675
489.350006104,2299.975
489.638122559,2228.05
489.926300049,2259.8
490.214355469,2200.825
490.502441406,2135.2
490.790527344,2056.4
491.078552246,2278.95
491.366546631,2278.85
491.654602051,2014.25
491.942565918,2116.1
492.230499268,2148.3
492.518493652,2111.65
492.806396484,2167.25
493.094268799,2060.975
493.382202148,2100.975
493.670074463,2229.225
493.957885742,2050.35
494.245727539,2052.725
494.533508301,2249.25
494.821289062,2109.55
495.109100342,1924.0
495.396850586,1876.05
495.684539795,1826.725
495.972290039,2082.125
496.25994873,2478.675
496.547607422,2479.05
496.835296631,2274.15
497.122894287,1892.05
497.410522461,1810.425
497.6980896,1801.0
497.985687256,1775.55
498.273223877,1897.05
498.560760498,1978.75
498.848266602,2003.95
499.135772705,1974.1
499.423217773,2022.975
499.710693359,2138.075
499.998138428,2072.175
500.285522461,1880.425
500.572937012,1792.2
500.860290527,1855.825
501.147644043,1987.55
501.434997559,2244.375
501.722290039,2071.9
502.00958252,1823.075
502.296875,2128.625
502.584106445,2106.125
502.871337891,1900.625
503.158599854,1985.525
503.445770264,2077.475
503.732910156,2054.125
504.020141602,1828.45
504.307220459,1807.45
504.594329834,1854.675
504.881469727,1776.7
505.168518066,1863.45
505.455535889,1938.75
505.742614746,1793.075
506.029632568,1719.525
506.316589355,1955.375
506.603637695,2049.3
506.890563965,1818.875
507.177459717,1616.45
507.464385986,1513.675
507.751312256,1786.175
508.038146973,1898.575
508.325012207,1719.075
508.611877441,1792.6
508.898681641,1807.575
509.185424805,1609.45
509.472259521,1561.6
509.759002686,1664.2
510.045715332,1709.85
510.332458496,1632.225
510.619140625,1710.275
510.905761719,1614.55
511.192504883,1592.95
511.479095459,1645.95
511.765686035,1587.125
512.052307129,1494.175
512.338928223,1435.325
512.625427246,1492.175
512.91204834,1564.825
513.198486328,1545.3
513.484985352,1504.025
513.77142334,1413.725
514.057922363,1472.5
514.344299316,1464.225
514.63079834,1428.15
514.917175293,1407.225
515.203552246,1297.95
515.489868164,1271.075
515.776245117,1408.9
516.0625,1447.125
516.348815918,1353.75
516.635070801,1396.125
516.921325684,1462.775
517.207580566,1389.6
517.493774414,1271.375
517.779968262,1273.975
518.066101074,1336.475
518.352294922,1271.275
518.638366699,1278.875
518.924499512,1373.45
519.210632324,1454.9
519.496643066,1420.775
519.782714844,1296.6
520.068786621,1260.2
520.354736328,1209.1
520.640686035,1160.25
520.926757812,1226.925
521.212646484,1311.075
521.498535156,1311.825
521.784484863,1262.175
522.0703125,1176.725
522.356262207,1196.725
522.642089844,1288.625
522.927856445,1289.025
523.213684082,1268.85
523.499511719,1261.95
523.78527832,1300.05
524.070983887,1367.6
524.356750488,1344.075
524.64239502,1292.2
524.928039551,1282.5
525.213806152,1309.825
525.499389648,1289.675
525.784973145,1321.7
526.070617676,1377.9
526.356140137,1341.3
526.641723633,1342.375
526.927307129,1424.85
527.212768555,1417.725
527.498291016,1391.025
527.783752441,1399.575
528.069213867,1388.9
528.354675293,1409.15
528.640014648,1601.0
528.925476074,1682.0
529.21081543,1580.7
529.496154785,1555.825
529.781555176,1517.675
530.066833496,1541.375
530.352050781,1556.8
530.637390137,1539.475
530.922607422,1551.05
531.207824707,1536.3
531.493041992,1521.2
531.778198242,1610.875
532.063354492,1585.9
532.348571777,1516.275
532.633666992,1540.125
532.918762207,1637.175
533.203857422,1738.1
533.488891602,1762.175
533.773925781,1705.6
534.059020996,1670.225
534.343933105,1700.575
534.628967285,1664.775
534.91394043,1695.025
535.198852539,1703.15
535.483703613,1678.1
535.768676758,1609.625
536.053527832,1604.125
536.338317871,1564.725
536.62322998,1487.675
536.90802002,1465.65
537.192810059,1493.325
537.477539062,1584.05
537.762329102,1634.325
538.047058105,1674.075
538.331726074,1708.45
538.616455078,1697.125
538.901123047,1667.3
539.18572998,1722.325
539.470397949,1718.275
539.755004883,1719.6
540.039550781,1658.125
540.32409668,1615.925
540.608703613,1678.8
540.893188477,1778.825
541.17767334,1805.5
541.462158203,1808.975
541.746643066,1744.675
542.031066895,1792.85
542.315429688,1847.225
542.59979248,1844.775
542.884216309,1818.8
543.168579102,1809.225
543.452941895,1816.25
543.737243652,1886.825
544.021484375,1940.175
544.305725098,1933.6
544.590026855,1898.75
544.874267578,1917.0
545.158447266,2005.075
545.442626953,1903.075
545.726806641,1774.35
546.010925293,1818.55
546.29510498,1846.7
546.579162598,1830.95
546.863220215,1880.05
547.147277832,1959.15
547.431335449,2049.425
547.715332031,2138.575
547.999328613,2264.15
548.283325195,2275.7
548.567260742,2091.3
548.851135254,2061.75
549.135070801,2015.4
549.419006348,1905.8
549.702819824,2025.625
549.986755371,2115.525
550.270507812,2063.45
550.554321289,2138.8
550.83807373,2140.675
551.121826172,2087.725
551.405517578,2104.775
551.689331055,2245.825
551.973022461,2523.15
552.256652832,2591.125
552.540344238,2462.225
552.823974609,2454.5
553.107543945,2424.95
553.391174316,2496.9
553.674743652,2564.875
553.958251953,2563.625
554.241821289,2577.3
554.525268555,2505.675
554.808776855,2513.675
555.092285156,2715.55
555.375671387,2821.1
555.659057617,2801.45
555.942504883,2846.875
556.225891113,2877.225
556.509216309,2840.7
556.792541504,2750.125
557.075866699,2831.45
557.359130859,2866.675
557.64239502,2877.475
557.92565918,2963.65
558.208862305,2930.825
558.49206543,2852.15
558.77532959,2874.1
559.058410645,2944.85
559.341552734,2920.675
559.624694824,2990.375
559.907775879,3069.875
560.190856934,3218.575
560.473937988,3198.9
560.756896973,3251.75
561.039978027,3283.05
561.322937012,3230.0
561.605895996,3217.725
561.88885498,3176.675
562.171813965,3183.625
562.454650879,3178.475
562.737548828,3231.15
563.020446777,3309.3
563.303283691,3309.375
563.58605957,3367.625
563.868896484,3378.3
564.151672363,3448.7
564.434387207,3477.25
564.717163086,3442.475
564.99987793,3491.25
565.282531738,3568.425
565.565185547,3489.625
565.847839355,3512.225
566.130432129,3641.975
566.413085938,3614.3
566.695678711,3626.425
566.978149414,3758.425
567.260681152,3925.775
567.543273926,4019.6
567.825744629,3905.925
568.108154297,3947.725
568.390686035,4092.675
568.673095703,4254.7
568.955505371,4298.475
569.237854004,4334.525
569.520202637,4656.05
569.802490234,4913.325
570.084838867,4871.65
570.367126465,4679.125
570.649414062,4704.375
570.93170166,5124.175
571.213928223,5211.0
571.496154785,4912.075
571.778381348,5169.05
572.06048584,5485.625
572.342590332,4938.95
572.624755859,4540.175
572.906860352,4612.2
573.188903809,5424.1
573.470947266,5710.075
573.752990723,5421.775
574.03503418,5528.7
574.317016602,5980.55
574.598937988,5749.325
574.88092041,5596.875
575.162841797,5802.0
575.444763184,5376.65
575.726623535,5078.95
576.008483887,5131.95
576.290344238,5592.825
576.572143555,5829.925
576.853881836,5896.25
577.135681152,5787.125
577.417419434,5869.975
577.699157715,6854.0
577.980895996,7058.975
578.262573242,6294.325
578.544128418,5752.325
578.825866699,5649.625
579.107421875,5286.025
579.388977051,5502.5
579.670593262,5957.9
579.952148438,5775.425
580.233642578,5886.6
580.515197754,6021.125
580.796691895,5675.35
581.078125,5880.925
581.359619141,7612.05
581.640991211,7751.775
581.922363281,6685.525
582.203796387,6772.5
582.485107422,6334.875
582.766418457,5858.925
583.047790527,5652.05
583.329040527,5546.9
583.610290527,5393.45
583.891540527,5552.55
584.172790527,5893.65
584.453918457,5902.7
584.735107422,5974.975
585.016235352,6494.15
585.297363281,6435.25
585.578552246,6227.625
585.859619141,6144.525
586.140625,5886.15
586.421630859,5700.45
586.702697754,5782.125
586.983642578,6056.075
587.264648438,6236.375
587.545654297,6170.275
587.826477051,6102.125
588.107421875,5867.7
588.388305664,5922.65
588.669189453,6014.9
588.950012207,5853.8
589.230834961,5740.65
589.511657715,5816.575
589.792358398,5915.625
590.073120117,5948.1
590.353881836,5909.95
590.63458252,5938.9
590.915283203,5888.675
591.195922852,5875.45
591.4765625,5945.4
591.757202148,5961.75
592.037780762,5930.225
592.31829834,5946.55
592.598937988,6215.925
592.879394531,6409.7
593.159912109,6302.075
593.440429688,6213.325
593.720825195,6209.6
594.001281738,6193.1
594.281677246,6073.725
594.562072754,6092.975
594.842407227,6197.475
595.122802734,6249.05
595.403137207,6217.5
595.683410645,6202.425
595.963623047,6169.575
596.243896484,6124.15
596.524169922,6115.375
596.804382324,6130.375
597.084533691,6169.725
597.364746094,6201.7
597.644836426,6230.55
597.924987793,6205.475
598.205078125,6160.925
598.485107422,6212.15
598.765197754,6336.425
599.045227051,6392.075
599.325195312,6288.075
599.605224609,6242.7
599.885192871,6280.6
600.165100098,6342.525
600.445007324,6276.3
600.724914551,6265.475
601.004760742,6280.725
601.284667969,6318.175
601.56451416,6285.425
601.844238281,6270.05
602.124084473,6293.625
602.403808594,6283.9
602.683532715,6305.35
602.963256836,6283.05
603.242919922,6346.125
603.522583008,6392.125
603.802246094,6351.025
604.081848145,6316.7
604.36138916,6307.575
604.641052246,6326.2
604.920532227,6293.7
605.200073242,6349.75
605.479614258,6365.425
605.759094238,6377.575
606.038574219,6392.725
606.317932129,6344.7
606.597412109,6313.5
606.87677002,6325.625
607.15612793,6375.45
607.435546875,6389.725
607.714782715,6386.35
607.99407959,6337.325
608.273376465,6314.15
608.552612305,6361.275
608.831848145,6375.3
609.111083984,6371.575
609.390258789,6347.125
609.669433594,6337.625
609.948608398,6414.025
610.227722168,6379.425
610.506713867,6303.35
610.785888672,6339.125
611.064880371,6324.3
611.34387207,6328.925
611.622924805,6344.725
611.901916504,6326.075
612.180847168,6281.175
612.459777832,6268.375
612.738647461,6282.625
613.01751709,6252.2
613.296447754,6203.35
613.575317383,6133.475
613.854064941,6088.875
614.132873535,5997.625
614.411621094,5948.475
614.690368652,5897.725
614.969177246,5823.525
615.247802734,5723.425
615.526489258,5719.55
615.805175781,5587.025
616.08380127,5455.95
616.362365723,5384.95
616.640991211,5311.975
616.919555664,5253.8
617.198059082,5389.275
617.4765625,5686.625
617.755126953,5848.6
618.033569336,5893.825
618.311950684,5872.3
618.590454102,5870.45
618.868774414,5842.65
619.147155762,5863.825
619.425598145,5836.125
619.703857422,5849.55
619.982177734,5852.875
620.260498047,5841.575
620.538757324,5823.15
620.816955566,5784.55
621.095214844,5738.45
621.373413086,5773.15
621.651550293,5843.475
621.929748535,5871.4
622.207824707,5826.225
622.485900879,5859.1
622.764038086,5878.95
623.042053223,5895.55
623.320007324,5913.975
623.598083496,5921.35
623.876037598,5891.15
624.153991699,5932.25
624.432006836,5948.525
624.709838867,5955.55
624.987731934,5937.225
625.265563965,5949.475
625.543395996,5955.925
625.821228027,6029.6
626.098999023,6009.2
626.376831055,6052.45
626.654541016,6088.25
626.932250977,6111.725
627.209960938,6163.375
627.487670898,6191.85
627.765319824,6190.075
628.04296875,6205.05
628.320495605,6186.525
628.598083496,6202.675
628.875671387,6232.25
629.153259277,6271.075
629.430725098,6303.825
629.708251953,6344.4
629.985656738,6367.15
630.263122559,6403.825
630.540588379,6435.275
630.817932129,6464.3
631.095275879,6460.425
631.372680664,6523.45
631.649963379,6590.525
631.927246094,6628.275
632.204589844,6671.525
632.481811523,6731.325
632.759033203,6809.6
633.036254883,6848.325
633.313415527,6929.475
633.590576172,7020.15
633.867736816,7124.1
634.144836426,7192.325
634.421875,7224.175
634.698913574,7294.4
634.976013184,7370.55
635.252990723,7443.75
635.529968262,7469.3
635.807006836,7569.7
636.08392334,7558.625
636.360839844,7431.35
636.637756348,7338.675
636.914611816,7276.75
637.191467285,7258.95
637.468261719,7355.675
637.745056152,7303.875
638.021789551,7342.7
638.298583984,7356.825
638.575317383,7398.3
638.851989746,7399.025
639.12878418,7418.65
639.405395508,7363.7
639.682006836,7434.85
639.958618164,7423.675
640.235229492,7413.1
640.511779785,7469.575
640.788330078,7433.55
641.064880371,7453.975
641.341308594,7412.975
641.617797852,7422.5
641.894226074,7441.55
642.170654297,7456.775
642.44708252,7459.2
642.723388672,7432.475
642.999755859,7430.375
643.276123047,7452.95
643.552429199,7431.9
643.828674316,7450.875
644.104919434,7410.15
644.381164551,7400.4
644.657348633,7423.625
644.933532715,7363.675
645.209716797,7391.925
645.485839844,7384.35
645.761901855,7399.575
646.038024902,7381.975
646.314086914,7393.35
646.590087891,7382.875
646.866149902,7426.625
647.142150879,7398.125
647.41809082,7343.65
647.694030762,7338.9
647.969970703,7326.825
648.245788574,7359.65
648.521728516,7354.05
648.797546387,7301.975
649.073303223,7333.15
649.349182129,7333.1
649.624938965,7315.925
649.900634766,7344.1
650.176391602,7319.7
650.452087402,7318.15
650.727783203,7322.55
651.003479004,7324.625
651.279052734,7308.875
651.554626465,7321.375
651.83026123,7312.45
652.105773926,7345.85
652.381286621,7274.6
652.656860352,7294.95
652.932312012,7321.25
653.207763672,7313.475
653.483215332,7360.175
653.758605957,7330.075
654.033935547,7337.9
654.309326172,7340.2
654.584716797,7366.6
654.859985352,7346.25
655.135253906,7368.55
655.410583496,7429.05
655.685791016,8511.55
655.9609375,13222.55
656.236206055,12878.05
656.511291504,8615.075
656.786437988,7576.5
657.061645508,7488.025
657.336669922,7446.625
657.611694336,7487.025
657.886779785,7493.725
658.161804199,7530.125
658.436828613,7483.325
658.711791992,7483.7
658.986755371,7456.95
659.261657715,7464.425
659.536621094,7516.575
659.811401367,7525.625
660.086303711,7543.825
660.36114502,7540.575
660.635864258,7545.525
660.910644531,7581.95
661.185424805,7580.9
661.460205078,7626.45
661.734863281,7588.3
662.009521484,7601.9
662.284179688,7634.2
662.558776855,7651.775
662.833435059,7700.0
663.108032227,7681.175
663.382568359,7674.8
663.657043457,7738.675
663.93157959,7779.85
664.206054688,7768.35
664.48046875,7831.4
664.755004883,7817.275
665.02935791,7848.675
665.303710938,7866.3
665.578125,7892.125
665.852416992,7897.775
666.126708984,7881.5
666.401062012,7899.25
666.675292969,7957.75
666.949462891,7946.675
667.223754883,7987.375
667.497924805,8007.525
667.772094727,8009.7
668.046264648,7968.7
668.3203125,8032.35
668.594421387,8048.425
668.868469238,8071.6
669.14251709,8079.625
669.416503906,8135.375
669.690551758,8166.925
669.964477539,8161.825
670.23840332,8175.4
670.512329102,8162.275
670.786254883,8155.425
671.060058594,8225.175
671.333984375,8222.9
671.607788086,8276.0
671.881530762,8239.4
672.155334473,8282.4
672.429077148,8310.475
672.702758789,8318.625
672.97644043,8300.325
673.25012207,8316.475
673.523742676,8310.975
673.797302246,8311.075
674.070922852,8405.125
674.344482422,8385.275
674.618041992,8398.625
674.891601562,8390.7
675.165100098,8414.575
675.438476562,8407.35
675.711975098,8473.575
675.985412598,8435.65
676.258789062,8437.225
676.532165527,8495.8
676.805480957,8498.9
677.078796387,8499.775
677.352111816,8529.325
677.625366211,8521.075
677.898620605,8520.775
678.171875,8564.7
678.445007324,8550.875
678.718200684,8595.325
678.991394043,8571.675
679.264404297,8563.95
679.537536621,8609.05
679.81060791,8622.15
680.083679199,8648.4
680.356689453,8651.15
680.629699707,8669.05
680.902648926,8647.125
681.175598145,8686.05
681.448547363,8742.675
681.721435547,8709.175
681.99420166,8697.025
682.267150879,8686.125
682.539916992,8759.825
682.812744141,8742.5
683.085510254,8740.85
683.358215332,8754.375
683.63092041,8741.575
683.903625488,8777.4
684.176330566,8748.775
684.448913574,8727.55
684.721557617,8738.3
684.99420166,8826.525
685.266662598,8801.875
685.539245605,8836.425
685.811767578,8890.325
686.084289551,8843.7
686.356689453,8867.1
686.629150391,8893.55
686.901550293,8921.475
687.17401123,8939.55
687.446350098,8945.775
687.718688965,8971.9
687.990966797,9034.275
688.263305664,9027.0
688.535522461,8996.7
688.807739258,9024.025
689.079956055,9072.825
689.352172852,9132.25
689.624328613,9115.075
689.896484375,9142.4
690.168518066,9136.25
690.440612793,9203.875
690.71270752,9199.6
690.984741211,9237.65
691.256713867,9234.725
691.528747559,9248.525
691.800720215,9250.15
692.072631836,9250.225
692.344543457,9325.625
692.616394043,9333.975
692.888244629,9302.875
693.160095215,9355.55
693.431945801,9398.475
693.703674316,9377.775
693.975463867,9331.375
694.247131348,9411.175
694.518859863,9393.1
694.790588379,9453.25
695.062255859,9446.075
695.33380127,9471.8
695.60546875,9451.6
695.87701416,9481.925
696.148498535,9516.35
696.42010498,9538.35
696.691589355,9580.45
696.96307373,9576.05
697.234558105,9638.4
697.50592041,9641.675
697.777282715,9623.05
698.048706055,9632.0
698.320068359,9691.45
698.591308594,9671.825
698.862670898,9644.9
699.133972168,9717.375
699.405151367,9682.4
699.676391602,9713.85
699.947570801,9702.375
700.21875,9750.35
700.489868164,9728.325
700.761047363,9748.175
701.032104492,9809.8
701.303100586,9767.2
701.57421875,9852.55
701.845214844,9853.0
702.116149902,9871.25
702.387207031,9840.55
702.65814209,9871.975
702.928955078,9925.55
703.199951172,9881.2
703.47076416,9870.425
703.741577148,9883.95
704.012451172,9894.05
704.28314209,9924.275
704.553955078,9900.175
704.824707031,9955.25
705.095397949,10002.875
705.366027832,10000.425
705.63671875,10025.2
705.907348633,9970.6
706.17791748,10010.5
706.448486328,10064.525
706.719055176,10034.65
706.989562988,10074.8
707.260131836,10066.525
707.530517578,10115.725
707.800964355,10117.55
708.071411133,10084.1
708.341796875,10086.0
708.612182617,10087.875
708.882446289,10080.2
709.152893066,10085.55
709.423156738,10124.4
709.693359375,10077.35
709.963623047,10089.5
710.233825684,10148.95
710.503967285,10097.625
710.774169922,10144.95
711.044311523,10114.9
711.31439209,10080.65
711.584533691,10131.85
711.854553223,10120.775
712.124572754,10163.875
712.39465332,10139.775
712.664611816,10199.85
712.934509277,10231.85
713.204467773,10204.85
713.474365234,10246.925
713.74420166,10211.45
714.014099121,10248.675
714.283874512,10229.975
714.553710938,10309.425
714.823486328,10307.85
715.093200684,10247.0
715.362915039,10276.075
715.632629395,10273.15
715.902282715,10238.5
716.171875,10212.35
716.441589355,10274.475
716.711181641,10190.65
716.980712891,10214.2
717.250244141,10215.075
717.519775391,10235.75
717.78918457,10260.525
718.058654785,10263.525
718.328125,10322.475
718.597473145,10231.025
718.866882324,10245.125
719.136230469,10296.675
719.405578613,10297.675
719.674865723,10324.8
719.944152832,10292.225
720.213439941,10290.75
720.48260498,10347.275
720.75177002,10335.025
721.020996094,10351.925
721.290100098,10334.6
721.559204102,10354.75
721.828308105,10372.2
722.097351074,10354.375
722.366455078,10326.125
722.635437012,10320.3
722.904418945,10314.1
723.173400879,10370.65
723.442321777,10391.7
723.711181641,10367.225
723.980102539,10388.15
724.248962402,10371.325
724.51776123,10352.85
724.786560059,10366.35
725.055358887,10369.65
725.324035645,10345.95
725.592834473,10368.675
725.86151123,10374.3
726.130187988,10354.975
726.398803711,10353.875
726.667419434,10368.95
726.935974121,10364.525
727.204528809,10304.725
727.473083496,10306.875
727.741638184,10296.025
728.010070801,10236.325
728.278564453,10244.525
728.546936035,10276.9
728.815368652,10175.975
729.08380127,10086.125
729.352111816,10081.15
729.620361328,10002.225
729.88873291,10065.2
730.156982422,10121.475
730.425231934,10121.875
730.693481445,10051.5
730.961669922,10191.425
731.229797363,10196.25
731.49798584,10263.125
731.766113281,10338.55
732.034118652,10407.025
732.302246094,10443.85
732.570251465,10465.8
732.838256836,10509.95
733.106262207,10594.65
733.374145508,10624.925
733.642089844,10689.7
733.909973145,10733.05
734.177856445,10838.5
734.445678711,10898.425
734.713562012,11058.75
734.981323242,11025.35
735.249084473,11072.4
735.516845703,11262.95
735.784545898,11374.925
736.052185059,11410.225
736.319885254,11544.55
736.587524414,11592.5
736.855102539,11666.55
737.122619629,11792.925
737.390197754,11828.875
737.657714844,11959.575
737.925170898,12011.575
738.192749023,12118.825
738.460144043,12182.75
738.727539062,12252.875
738.994995117,12348.5
739.262329102,12490.575
739.529663086,12605.35
739.79699707,12651.45
740.06427002,12721.425
740.331481934,12781.425
740.598754883,12863.65
740.865905762,12888.55
741.133056641,13076.575
741.40032959,13093.45
741.667358398,13175.675
741.934448242,13236.175
742.201599121,13222.95
742.468566895,13374.725
742.735534668,13407.925
743.002563477,13453.075
743.26953125,13427.675
743.536437988,13498.375
743.803405762,13651.25
744.0703125,13593.05
744.337097168,13736.725
744.604003906,13615.8
744.870727539,13716.125
745.137512207,13759.525
745.40423584,13777.775
745.670959473,13778.35
745.93762207,13808.25
746.204284668,13810.475
746.470947266,13847.1
746.737548828,13842.775
747.004089355,13893.3
747.270751953,13906.15
747.53717041,13957.725
747.803710938,13850.65
748.070251465,13822.85
748.336608887,13819.0
748.603027344,13820.05
748.869445801,13806.925
749.135803223,13828.35
749.402099609,13844.0
749.668457031,13846.575
749.934753418,13825.275
750.20098877,13755.95
750.467224121,13822.25
750.733459473,13784.425
750.999572754,13757.45
751.26574707,13660.925
751.531860352,13715.175
751.797912598,13710.225
752.064025879,13610.25
752.330078125,13614.35
752.596069336,13587.475
752.862060547,13527.725
753.127990723,13555.1
753.393920898,13554.95
753.659912109,13501.5
753.925720215,13536.95
754.19152832,13468.775
754.457397461,13393.15
754.723144531,13395.675
754.988952637,13326.6
755.254699707,13381.05
755.520385742,13380.35
755.786071777,13355.825
756.051696777,13325.3
756.317382812,13238.875
756.582946777,13192.9
756.848510742,13236.4
757.114074707,13140.025
757.379577637,13190.55
757.645080566,13277.225
757.910583496,13192.925
758.175964355,13119.075
758.441345215,13094.3
758.706848145,12916.975
758.972106934,12944.9
759.237426758,12950.225
759.502807617,12996.175
759.768005371,12987.15
760.03326416,12952.025
760.298522949,12844.05
760.563659668,12861.225
760.828857422,12852.675
761.093994141,12831.15
761.359130859,12762.325
761.624206543,12709.725
761.889282227,12709.85
762.15423584,12692.675
762.419250488,12674.325
762.684265137,12634.75
762.949157715,12592.55
763.214050293,12601.15
763.479003906,12590.575
763.743835449,12561.7
764.008666992,12490.825
764.2734375,12494.675
764.538208008,12558.6
764.802978516,12585.875
765.067687988,12555.725
765.332397461,12545.5
765.597045898,12497.4
765.861694336,12424.95
766.126342773,12384.425
766.390930176,12349.425
766.655395508,12330.0
766.920043945,12289.65
767.184509277,12271.45
767.448974609,12290.9
767.713439941,12244.35
767.977783203,12223.65
768.2421875,12286.4
768.506591797,12204.45
768.770874023,12315.075
769.03515625,12271.025
769.299499512,12169.625
769.563720703,12203.8
769.827941895,12116.525
770.092163086,12105.9
770.356323242,12060.6
770.620483398,12131.5
770.88458252,12140.3
771.148681641,12154.85
771.412719727,12063.275
771.676757812,12123.375
771.940734863,12032.625
772.204711914,12020.425
772.468688965,12006.95
772.73260498,12000.725
772.996459961,12031.875
773.260314941,10746.5
773.524169922,1361.05
773.787963867,161.45
774.051696777,125.05
774.315551758,117.35
774.579223633,121.425
774.842895508,121.525
775.106567383,120.675
775.370239258,119.125
775.633789062,122.65
775.897399902,124.225
776.160949707,116.5
776.424499512,121.625
776.687988281,124.3
776.951477051,126.1
777.214904785,119.025
777.47833252,120.225
