191.299911499,97.475
191.603515625,103.325
191.907119751,95.575
192.210693359,104.175
192.514251709,99.425
192.817810059,104.475
193.121368408,103.175
193.42489624,104.325
193.728408813,98.375
194.031936646,101.85
194.33543396,95.575
194.638916016,112.0
194.94241333,97.925
195.245880127,98.125
195.549331665,95.275
195.852767944,99.3
196.156204224,204.1
196.459625244,203.525
196.763015747,202.475
197.066436768,209.3
197.369812012,203.475
197.673187256,209.7
197.9765625,200.375
198.279922485,205.425
198.583251953,198.15
198.886581421,201.8
199.18989563,207.15
199.493209839,208.4
199.79649353,199.6
200.09979248,211.2
200.403076172,203.85
200.706314087,206.625
201.009567261,204.3
201.312820435,207.725
201.616027832,197.775
201.919235229,192.8
202.222457886,198.175
202.525634766,199.325
202.828826904,191.625
203.132003784,193.75
203.435150146,197.375
203.738296509,193.55
204.041412354,192.0
204.344558716,197.775
204.647659302,202.275
204.950759888,201.2
205.253845215,195.7
205.556930542,194.125
205.859985352,197.975
206.163024902,196.7
206.466079712,199.9
206.769104004,205.15
207.072113037,200.75
207.375137329,197.875
207.678131104,203.3
207.981109619,200.925
208.284088135,195.35
208.587036133,205.7
208.889984131,204.3
209.19291687,202.4
209.495849609,204.325
209.798751831,203.125
210.101654053,202.45
210.404556274,207.675
210.707427979,204.75
211.010269165,211.2
211.31312561,208.275
211.615982056,208.45
211.918807983,211.325
212.221618652,212.65
212.524429321,205.725
212.827224731,213.45
213.130004883,210.875
213.432769775,212.575
213.735534668,212.05
214.038269043,217.375
214.341003418,209.65
214.643737793,219.625
214.946456909,216.825
215.249145508,221.4
215.551834106,226.325
215.854507446,225.15
216.157165527,221.675
216.45980835,226.775
216.762451172,227.1
217.065078735,231.45
217.36769104,227.175
217.670303345,234.35
217.972885132,238.55
218.275466919,239.2
218.578048706,233.475
218.880599976,245.525
219.183120728,244.125
219.485656738,245.775
219.788192749,263.275
220.090682983,269.5
220.393188477,290.95
220.695663452,315.55
220.998138428,344.075
221.300582886,390.475
221.603042603,427.6
221.905487061,471.9
222.207901001,531.65
222.510299683,595.475
222.812728882,673.625
223.115097046,770.65
223.41746521,861.2
223.719848633,953.475
224.022171021,1047.1
224.324508667,1164.35
224.626846313,1282.5
224.929168701,1385.375
225.231460571,1495.575
225.533737183,1607.425
225.836013794,1728.575
226.138290405,1846.7
226.440536499,1937.0
226.742767334,2050.425
227.044998169,2128.925
227.347213745,2240.075
227.649429321,2329.625
227.951629639,2408.275
228.253799438,2474.6
228.555953979,2540.525
228.858123779,2610.075
229.160263062,2656.175
229.462371826,2699.375
229.764511108,2744.3
230.066619873,2790.475
230.36869812,2841.65
230.670776367,2851.55
230.972854614,2921.35
231.274902344,2979.725
231.576950073,3017.475
231.878967285,3036.625
232.180999756,3112.975
232.48298645,3135.75
232.784988403,3205.225
233.086975098,3248.375
233.388946533,3295.5
233.69090271,3336.675
233.992858887,3393.675
234.294769287,3392.9
234.596694946,3431.25
234.898605347,3499.875
235.200500488,3527.4
235.502380371,3539.65
235.804244995,3578.125
236.106109619,3574.7
236.407958984,3584.975
236.709777832,3617.55
237.011581421,3648.825
237.313400269,3629.6
237.615203857,3661.475
237.916976929,3674.975
238.21875,3704.925
238.520507812,3700.725
238.822250366,3732.3
239.12399292,3710.125
239.425704956,3766.0
239.727401733,3715.25
240.02911377,3761.75
240.330780029,3731.25
240.632446289,3758.65
240.93409729,3758.05
241.23576355,3774.575
241.537384033,3797.5
241.839004517,3818.95
242.140594482,3839.1
242.442199707,3860.95
242.743774414,3882.1
243.045333862,3918.925
243.346923828,3942.875
243.648452759,3957.375
243.949966431,3977.275
244.251495361,4014.575
244.552993774,4030.3
244.854492188,4040.625
245.155975342,4069.45
245.457443237,4094.575
245.758880615,4116.85
246.060333252,4146.375
246.36177063,4136.8
246.66317749,4148.775
246.964569092,4189.35
247.265945435,4206.2
247.567337036,4249.0
247.86869812,4292.525
248.170059204,4341.5
248.471389771,4347.45
248.772705078,4413.875
249.074035645,4470.7
249.375335693,4517.2
249.676620483,4558.325
249.977890015,4643.825
250.279159546,4719.525
250.58039856,4811.65
250.881637573,4839.8
251.182876587,4930.675
251.484069824,5003.45
251.785263062,5082.725
252.086456299,5184.975
252.387619019,5237.525
252.688781738,5308.375
252.989929199,5410.075
253.291061401,5483.375
253.592178345,5566.975
253.893280029,5618.0
254.194366455,5702.475
254.49546814,5745.475
254.796524048,5789.25
255.097579956,5875.9
255.398620605,5882.85
255.699645996,5964.35
256.000640869,5961.8
256.30166626,6008.45
256.602661133,6068.775
256.903656006,6057.625
257.204589844,6079.875
257.505523682,6067.925
257.80645752,6089.0
258.107391357,6073.0
258.408294678,6094.475
258.709228516,6078.05
259.010070801,6027.375
259.310943604,6025.05
259.611846924,5977.9
259.912658691,5965.4
260.213500977,5954.35
260.514343262,5901.625
260.815124512,5841.2
261.115936279,5838.15
261.416717529,5838.7
261.717468262,5826.775
262.018218994,5808.675
262.318969727,5791.65
262.619689941,5829.95
262.920410156,5909.15
263.221130371,5950.725
263.521789551,5976.875
263.822479248,6035.075
264.123138428,6120.45
264.42376709,6135.725
264.72442627,6159.725
265.025054932,6194.35
265.325622559,6204.45
265.626251221,6237.075
265.926818848,6219.925
266.227386475,6177.3
266.527954102,6179.225
266.828460693,6224.85
267.12902832,6127.475
267.429534912,6123.35
267.730010986,6090.85
268.030517578,6060.475
268.330993652,6056.025
268.631439209,6040.025
268.931915283,6035.85
269.232299805,6002.925
269.532745361,6021.875
269.8331604,5955.025
270.133544922,5972.275
270.433929443,5991.025
270.734313965,6003.575
271.034637451,6055.7
271.334991455,6020.4
271.635314941,6074.55
271.935638428,6092.775
272.235931396,6141.7
272.536254883,6204.975
272.836486816,6311.3
273.136749268,6404.9
273.437011719,6512.475
273.737213135,6627.925
274.037445068,6773.175
274.337677002,6868.65
274.6378479,6985.4
274.938049316,7155.525
275.238220215,7252.275
275.538360596,7428.125
275.838500977,7523.4
276.138641357,7695.2
276.438751221,7760.325
276.738830566,7870.65
277.03894043,7973.35
277.338989258,8135.9
277.639038086,8235.625
277.939056396,8317.225
278.239105225,8375.125
278.539093018,8500.125
278.839141846,8569.65
279.139129639,8646.625
279.439086914,8743.875
279.739044189,8822.55
280.039001465,8953.5
280.338928223,9000.925
280.63885498,9070.725
280.938781738,9153.325
281.238647461,9174.275
281.538513184,9205.7
281.838409424,9262.225
282.138244629,9319.625
282.438079834,9325.975
282.737945557,9380.975
283.037719727,9402.25
283.337524414,9403.25
283.637298584,9460.7
283.937072754,9500.225
284.236816406,9510.425
284.536560059,9464.425
284.836303711,9494.625
285.136016846,9555.6
285.43572998,9571.975
285.735412598,9558.95
286.035064697,9565.65
286.334747314,9631.45
286.634368896,9617.675
286.933990479,9539.6
287.233642578,9486.725
287.533203125,9463.425
287.832824707,9376.4
288.132385254,9281.425
288.431945801,9125.1
288.731506348,8985.0
289.031036377,8803.475
289.330566406,8642.7
289.630065918,8649.825
289.92956543,8597.375
290.229034424,8687.775
290.528503418,8857.975
290.827941895,9068.225
291.127380371,9246.125
291.42678833,9389.05
291.726226807,9558.725
292.025604248,9580.4
292.324981689,9575.375
292.624359131,9600.5
292.923736572,9612.625
293.223052979,9637.225
293.522369385,9613.25
293.821685791,9575.875
294.12097168,9518.55
294.420257568,9486.35
294.719543457,9475.75
295.018768311,9460.625
295.318023682,9417.85
295.617248535,9306.2
295.916442871,9253.8
296.215667725,9154.975
296.514862061,8975.65
296.813995361,8722.825
297.11315918,8494.15
297.412322998,8342.3
297.711425781,8294.1
298.010559082,8478.325
298.309631348,8721.45
298.608734131,8964.975
298.907806396,9214.725
299.206848145,9358.825
299.505889893,9455.675
299.804901123,9575.2
300.103912354,9636.05
300.402954102,9737.35
300.701904297,9779.675
301.00088501,9861.9
301.299835205,9941.775
301.5987854,9943.925
301.897735596,10043.55
302.196624756,10116.35
302.495513916,10199.525
302.794403076,10213.675
303.093292236,10288.75
303.392120361,10358.525
303.690979004,10450.175
303.989837646,10492.95
304.288604736,10554.275
304.587402344,10530.925
304.886199951,10586.4
305.184967041,10632.325
305.483734131,10679.75
305.782501221,10723.775
306.081176758,10739.3
306.37991333,10772.525
306.678619385,10777.425
306.977294922,10762.875
307.275970459,10818.025
307.574645996,10820.25
307.873260498,10787.225
308.171875,10821.6
308.470489502,10769.2
308.769104004,10698.675
309.067687988,10710.05
309.366241455,10732.925
309.664794922,10647.4
309.963348389,10657.3
310.261871338,10658.75
310.560394287,10657.0
310.858856201,10677.25
311.157348633,10721.6
311.455810547,10718.9
311.754272461,10730.7
312.052703857,10825.575
312.351135254,10855.025
312.649536133,10820.725
312.947937012,10781.025
313.246307373,10823.85
313.544647217,10863.625
313.843017578,10796.05
314.141387939,10743.675
314.439697266,10782.2
314.738006592,10683.475
315.036315918,10609.55
315.334564209,10510.75
315.6328125,10436.75
315.931091309,10338.775
316.229309082,10220.725
316.527526855,10059.35
316.825744629,10011.625
317.123901367,9892.4
317.422088623,9845.5
317.720245361,9821.8
318.0184021,9846.95
318.316497803,9924.85
318.614654541,9945.375
318.912750244,10045.525
319.21081543,10009.925
319.50894165,10071.9
319.806945801,10076.925
320.104980469,10049.8
320.403045654,10056.325
320.701049805,10019.775
320.999023438,9988.275
321.297027588,9948.975
321.595001221,9876.725
321.892913818,9861.65
322.190887451,9776.425
322.488830566,9734.575
322.786712646,9657.975
323.084625244,9549.65
323.382507324,9548.85
323.680358887,9432.475
323.978210449,9319.2
324.276062012,9281.075
324.573852539,9244.85
324.871643066,9168.4
325.169464111,9054.325
325.467224121,9020.275
325.764984131,8924.625
326.062744141,8830.975
326.360473633,8715.85
326.658203125,8684.475
326.955871582,8579.975
327.253570557,8486.5
327.551239014,8436.525
327.848907471,8361.1
328.146514893,8267.4
328.444152832,8181.225
328.741790771,8126.0
329.039367676,8065.9
329.336914062,7993.425
329.634521484,7897.925
329.932067871,7873.875
330.229553223,7754.3
330.527160645,7706.6
330.824615479,7657.325
331.12210083,7574.125
331.419586182,7418.8
331.717041016,7363.85
332.014465332,7249.225
332.311920166,7209.225
332.609313965,7148.7
332.906707764,7132.975
333.204101562,7132.0
333.501495361,7128.75
333.798828125,7172.8
334.096160889,7223.25
334.39352417,7285.775
334.690795898,7332.9
334.988098145,7398.55
335.285400391,7466.1
335.582641602,7432.3
335.879882812,7505.4
336.177124023,7520.325
336.474334717,7598.975
336.77154541,7595.625
337.068725586,7610.275
337.365905762,7623.65
337.66305542,7636.775
337.960205078,7664.85
338.257324219,7694.375
338.554443359,7676.7
338.8515625,7676.275
339.148590088,7678.7
339.445648193,7726.65
339.742736816,7659.825
340.039764404,7655.3
340.336761475,7617.825
340.63381958,7553.9
340.930755615,7493.025
341.227722168,7407.3
341.524688721,7316.3
341.821624756,7283.325
342.118560791,7309.35
342.415496826,7386.25
342.712402344,7526.625
343.009246826,7718.325
343.306121826,7848.625
343.602966309,7881.5
343.899810791,8013.775
344.196624756,8110.6
344.493438721,8127.125
344.79019165,8182.675
345.086975098,8238.925
345.383758545,8292.075
345.680480957,8284.425
345.977203369,8314.15
346.273956299,8361.9
346.570617676,8322.3
346.86730957,8341.675
347.163970947,8290.425
347.460601807,8368.475
347.757232666,8370.525
348.053894043,8344.35
348.350463867,8299.7
348.647064209,8251.7
348.943634033,8253.05
349.24017334,8224.7
349.536712646,8194.625
349.833251953,8213.775
350.129760742,8163.925
350.426208496,8160.4
350.722747803,8124.925
351.019195557,8093.775
351.315612793,8034.5
351.612060547,8008.025
351.908508301,7941.0
352.204864502,7879.9
352.501281738,7831.675
352.797637939,7759.525
353.093963623,7656.525
353.390319824,7574.125
353.686645508,7461.825
353.982940674,7402.275
354.27923584,7351.75
354.575531006,7272.025
354.871765137,7262.375
355.167999268,7253.125
355.464233398,7233.1
355.760437012,7265.25
356.056640625,7251.025
356.352813721,7251.375
356.648956299,7257.875
356.945129395,7276.025
357.241271973,7259.95
357.537384033,7279.25
357.833496094,7226.4
358.129577637,7182.05
358.425628662,7172.125
358.721679688,7138.55
359.017730713,7098.05
359.313720703,7056.825
359.609710693,7032.975
359.905761719,6951.7
360.201721191,6889.9
360.497650146,6828.95
360.793609619,6804.775
361.089538574,6732.3
361.385437012,6620.35
361.681365967,6577.775
361.977233887,6519.225
362.273071289,6434.125
362.568908691,6302.15
362.864746094,6184.475
363.160552979,6014.575
363.456359863,5804.65
363.752166748,5671.275
364.047912598,5572.775
364.343658447,5522.625
364.639434814,5556.85
364.935119629,5598.375
365.230834961,5678.65
365.526550293,5720.9
365.822174072,5694.05
366.117858887,5722.975
366.413482666,5767.95
366.709075928,5790.625
367.004730225,5676.075
367.300292969,5686.075
367.595855713,5748.6
367.891448975,5614.35
368.186981201,5501.5
368.482513428,5426.775
368.778015137,5435.275
369.073547363,5373.175
369.36895752,5387.85
369.664428711,5254.85
369.95993042,5126.75
370.255310059,5075.55
370.550720215,5043.85
370.846160889,4983.875
371.14151001,4967.475
371.436859131,4934.85
371.73223877,4907.325
372.027557373,4876.9
372.322875977,4806.875
372.618164062,4778.275
372.913482666,4710.25
373.208709717,4681.975
373.503967285,4610.75
373.799194336,4561.975
374.094421387,4564.925
374.389648438,4535.525
374.684844971,4525.875
374.979980469,4569.975
375.275146484,4573.925
375.570281982,4585.825
375.865386963,4606.475
376.160522461,4546.925
376.455596924,4551.525
376.750640869,4659.95
377.045715332,4662.15
377.340759277,4708.175
377.635772705,4779.025
377.93081665,4802.35
378.225769043,4883.45
378.520751953,4938.325
378.815734863,4905.325
379.110656738,5093.1
379.405548096,5275.95
379.700500488,5105.9
379.995391846,4854.875
380.290252686,4902.525
380.585083008,5040.85
380.879974365,5056.825
381.17477417,4973.25
381.469543457,4904.15
381.764404297,4894.5
382.059143066,4921.15
382.353912354,5020.8
382.648651123,5099.55
382.943389893,5100.15
383.238067627,4895.775
383.532775879,4879.375
383.827484131,4808.9
384.12210083,4810.675
384.416778564,4755.85
384.711425781,4656.575
385.006011963,4677.1
385.300628662,4666.725
385.595184326,4745.6
385.88973999,4865.875
386.184295654,4977.225
386.478820801,5059.925
386.77331543,5162.325
387.067840576,5285.7
387.362335205,5385.6
387.656768799,5461.925
387.951202393,5513.35
388.245635986,5579.525
388.540039062,5676.05
388.834472656,5745.9
389.128875732,5605.5
389.423187256,5351.7
389.717559814,5290.525
390.011871338,5432.275
390.306182861,5466.65
390.600463867,5476.15
390.894775391,5540.475
391.189025879,5579.325
391.48324585,5563.825
391.777526855,5626.925
392.071685791,5857.975
392.365875244,5984.575
392.660064697,6059.0
392.95425415,6438.825
393.248382568,6414.85
393.542510986,5883.875
393.836608887,5659.325
394.130706787,5668.3
394.424804688,5601.6
394.71887207,5733.125
395.012878418,5705.475
395.306915283,5610.75
395.600921631,5523.425
395.894927979,5488.4
396.188903809,5552.225
396.482879639,5564.575
396.776794434,5782.9
397.070739746,5732.475
397.364654541,5772.3
397.658538818,6216.575
397.952423096,6212.325
398.246307373,6186.95
398.540100098,6798.05
398.833953857,6653.6
399.127746582,6111.125
399.421508789,6124.45
399.715301514,6042.225
400.009063721,5918.075
400.30279541,5767.85
400.596496582,5651.5
400.890258789,5857.375
401.183929443,5971.55
401.47756958,5818.925
401.771240234,5558.9
402.064880371,5559.7
402.35848999,5626.775
402.652130127,5515.625
402.945678711,5588.85
403.239257812,5526.6
403.532775879,5474.5
403.82635498,5518.875
404.119842529,5425.875
404.413360596,5421.55
404.706848145,5468.7
405.000274658,5387.375
405.293762207,5479.925
405.587188721,5545.525
405.880584717,5367.65
406.17401123,5166.325
406.467407227,4937.6
406.760742188,4941.3
407.054107666,4975.825
407.347442627,4896.65
407.640716553,4880.0
407.934051514,4932.225
408.227325439,5028.575
408.520568848,5267.1
408.813842773,5356.0
409.107086182,5130.925
409.400238037,5078.95
409.693450928,4978.375
409.986633301,5148.475
410.279754639,5045.675
410.572875977,4708.025
410.86605835,4648.45
411.159118652,4670.475
411.452209473,4669.7
411.745330811,4514.775
412.038360596,4416.175
412.331390381,4446.475
412.624420166,4502.9
412.917388916,4409.925
413.210388184,4193.55
413.503387451,4151.75
413.796295166,4040.0
414.089233398,3849.8
414.382141113,3755.55
414.675048828,3732.975
414.967926025,3763.4
415.260803223,3711.525
415.55368042,3743.85
415.846466064,3697.05
416.139282227,3812.625
416.432098389,3922.5
416.724853516,3912.475
417.017608643,3860.55
417.31036377,3868.825
417.603088379,4028.5
417.895782471,3993.275
418.188476562,3940.025
418.481140137,4015.45
418.773803711,4101.975
419.066436768,4068.125
419.359039307,4145.05
419.651641846,4166.775
419.944244385,4161.85
420.236816406,4126.475
420.529327393,4340.9
420.821899414,4427.95
421.114379883,4335.675
421.406860352,4637.55
421.699371338,4904.625
421.991821289,4844.125
422.284240723,4629.2
422.576721191,4457.65
422.869110107,4347.25
423.161468506,4258.975
423.453857422,4317.025
423.74621582,4170.925
424.038543701,4022.675
424.330871582,3960.875
424.623168945,3899.05
424.915435791,4058.0
425.207702637,4008.55
425.499969482,3951.35
425.792205811,3879.35
426.084411621,3603.25
426.376617432,3693.525
426.668762207,3770.775
426.9609375,3625.725
427.253082275,3762.0
427.545196533,4237.55
427.837310791,3928.65
428.129425049,3598.125
428.421447754,3821.75
428.713531494,3846.6
429.005554199,3823.425
429.297576904,3847.975
429.589599609,4342.775
429.881561279,4686.925
430.173522949,4451.925
430.465484619,4400.3
430.757415771,4487.1
431.049316406,4207.425
431.341186523,3938.125
431.633117676,3836.325
431.924957275,3471.1
432.21673584,3360.15
432.508636475,3527.0
432.800415039,3546.775
433.092163086,3438.925
433.383972168,3398.825
433.675689697,4225.125
433.967437744,4783.075
434.259155273,3690.875
434.550872803,3319.075
434.842498779,3384.95
435.134185791,3539.85
435.425842285,3578.7
435.717437744,3463.225
436.009063721,3240.525
436.30065918,3418.0
436.592224121,3804.65
436.883758545,3582.275
437.175323486,3262.725
437.466827393,3244.2
437.758331299,3246.725
438.049804688,3287.175
438.341247559,3362.725
438.63269043,3452.325
438.924163818,3442.275
439.215515137,3382.375
439.50692749,3276.025
439.798309326,3265.725
440.089660645,3296.1
440.380981445,3202.15
440.672332764,3183.8
440.963623047,3489.85
441.254882812,4013.575
441.546173096,4228.975
441.837402344,3943.525
442.128631592,3737.275
442.41986084,3698.175
442.711029053,3554.25
443.002197266,3650.275
443.293365479,3839.2
443.584503174,3996.325
443.875610352,3948.45
444.166717529,3655.6
444.457794189,3722.9
444.748840332,3707.225
445.039916992,3658.9
445.330932617,3758.8
445.621948242,3575.9
445.912963867,3356.3
446.203918457,3591.45
446.494812012,3884.825
446.785827637,3653.425
447.076721191,3451.525
447.367584229,3449.5
447.658447266,3390.275
447.949371338,3467.525
448.24017334,3303.975
448.530975342,3224.15
448.821838379,3426.7
449.112579346,3506.275
449.40335083,3437.75
449.694152832,3462.225
449.984863281,3465.175
450.27557373,3404.875
450.56628418,3446.4
450.856933594,3478.875
451.147583008,3294.425
451.438262939,3187.6
451.728881836,3399.0
452.019470215,3521.375
452.310089111,3281.3
452.600646973,3301.6
452.891174316,3373.475
453.181732178,3173.275
453.472229004,3026.975
453.762695312,3164.575
454.053222656,3176.2
454.343658447,3039.0
454.634063721,2979.875
454.924530029,3175.375
455.214935303,3321.175
455.505279541,3409.65
455.795715332,3242.65
456.086029053,3024.375
456.376312256,3000.8
456.666687012,3030.675
456.956939697,3166.675
457.247192383,3165.35
457.537445068,3230.6
457.827728271,3456.3
458.117919922,3370.875
458.408081055,3281.1
458.698303223,3501.1
458.988433838,3416.85
459.278564453,3204.85
459.568725586,3531.375
459.858825684,3658.975
460.148864746,3289.95
460.438995361,3254.075
460.729034424,3323.025
461.019042969,3350.05
461.309082031,3555.375
461.599060059,3427.675
461.889007568,2898.825
462.179016113,2692.575
462.468933105,2967.9
462.75881958,3093.4
463.048736572,2790.525
463.338592529,3112.35
463.628448486,3514.35
463.918365479,3183.025
464.2081604,3375.025
464.497924805,3333.275
464.787780762,3457.65
465.077514648,3807.7
465.367218018,3380.475
465.657012939,3606.25
465.946685791,4081.675
466.236358643,3634.125
466.526092529,3010.4
466.815734863,3015.2
467.105316162,2918.4
467.394927979,2954.65
467.684570312,2801.05
467.974121094,2906.2
468.263671875,3018.125
468.553222656,2768.25
468.842773438,2661.575
469.132232666,2539.225
469.42175293,2566.9
469.711212158,2525.5
470.000640869,2390.3
470.290100098,2453.15
470.579498291,2507.175
470.868835449,2501.775
471.158294678,2445.325
471.447601318,2440.625
471.736907959,2506.0
472.026275635,2601.0
472.315551758,2563.775
472.604797363,2561.6
472.894104004,2711.25
473.183319092,2843.475
473.47253418,2827.675
473.761779785,2824.1
474.05090332,2736.9
474.340087891,2690.05
474.629241943,2616.175
474.918365479,2809.5
475.207427979,3126.725
475.496551514,3148.2
475.785614014,2849.3
476.074645996,2631.425
476.363708496,2712.475
476.652679443,2885.3
476.941650391,2678.825
477.230682373,2504.225
477.519622803,2506.725
477.808502197,2687.05
478.097412109,2989.825
478.386352539,2928.975
478.675201416,2623.0
478.964050293,2505.3
479.25289917,2727.15
479.541717529,2786.3
479.830474854,2615.975
480.11932373,3010.7
480.408050537,3213.275
480.696777344,2769.175
480.985534668,2615.675
481.274200439,2726.2
481.562866211,3009.375
481.851593018,3039.625
482.140197754,2986.1
482.428833008,2785.85
482.717468262,2557.625
483.006011963,2582.05
483.294586182,2727.5
483.5831604,2770.7
483.871673584,2610.025
484.16015625,2787.325
484.448699951,3066.9
484.7371521,3099.85
485.02557373,3094.1
485.314025879,2802.475
485.602416992,4353.675
485.890777588,15220.25
486.179199219,13700.475
486.467559814,3683.8
486.755859375,2686.525
487.044219971,3131.85
487.332519531,3330.625
487.620758057,2873.075
487.908966064,2588.15
488.197265625,2341.4
488.485473633,2236.3
488.773651123,2357.925
489.061859131,2361.9
489.350006104,2299.05
489.638122559,2233.1
489.926300049,2259.925
490.214355469,2200.775
490.502441406,2131.925
490.790527344,2062.65
491.078552246,2279.025
491.366546631,2285.475
491.654602051,2012.875
491.942565918,2107.075
492.230499268,2156.75
492.518493652,2101.4
492.806396484,2161.425
493.094268799,2050.725
493.382202148,2098.775
493.670074463,2239.725
493.957885742,2056.4
494.245727539,2059.8
494.533508301,2243.825
494.821289062,2109.375
495.109100342,1922.075
495.396850586,1885.15
495.684539795,1823.2
495.972290039,2084.325
496.25994873,2482.075
496.547607422,2486.225
496.835296631,2283.875
497.122894287,1896.575
497.410522461,1811.25
497.6980896,1806.8
497.985687256,1771.725
498.273223877,1907.85
498.560760498,1983.175
498.848266602,2011.725
499.135772705,1978.65
499.423217773,2023.875
499.710693359,2150.925
499.998138428,2065.15
500.285522461,1884.575
500.572937012,1787.975
500.860290527,1858.75
501.147644043,1980.375
501.434997559,2251.475
501.722290039,2093.325
502.00958252,1814.975
502.296875,2113.55
502.584106445,2111.225
502.871337891,1908.175
503.158599854,1989.55
503.445770264,2080.7
503.732910156,2063.875
504.020141602,1828.575
504.307220459,1815.7
504.594329834,1847.75
504.881469727,1768.225
505.168518066,1854.2
505.455535889,1938.95
505.742614746,1808.9
506.029632568,1710.75
506.316589355,1946.3
506.603637695,2042.2
506.890563965,1821.65
507.177459717,1617.4
507.464385986,1522.3
507.751312256,1787.1
508.038146973,1882.375
508.325012207,1729.1
508.611877441,1781.075
508.898681641,1794.0
509.185424805,1608.55
509.472259521,1559.6
509.759002686,1667.825
510.045715332,1706.75
510.332458496,1632.225
510.619140625,1715.7
510.905761719,1598.025
511.192504883,1600.2
511.479095459,1648.25
511.765686035,1587.0
512.052307129,1509.525
512.338928223,1428.4
512.625427246,1490.3
512.91204834,1573.5
513.198486328,1546.4
513.484985352,1513.5
513.77142334,1408.25
514.057922363,1465.9
514.344299316,1473.025
514.63079834,1425.05
514.917175293,1403.925
515.203552246,1297.225
515.489868164,1271.9
515.776245117,1407.725
516.0625,1461.375
516.348815918,1355.55
516.635070801,1397.675
516.921325684,1456.375
517.207580566,1386.125
517.493774414,1272.075
517.779968262,1282.75
518.066101074,1322.225
518.352294922,1275.125
518.638366699,1275.05
518.924499512,1370.9
519.210632324,1463.925
519.496643066,1418.35
519.782714844,1301.1
520.068786621,1261.15
520.354736328,1218.65
520.640686035,1166.475
520.926757812,1218.45
521.212646484,1313.475
521.498535156,1322.25
521.784484863,1257.5
522.0703125,1175.65
522.356262207,1198.8
522.642089844,1284.3
522.927856445,1284.9
523.213684082,1271.3
523.499511719,1260.425
523.78527832,1305.55
524.070983887,1367.225
524.356750488,1339.5
524.64239502,1299.6
524.928039551,1286.75
525.213806152,1312.075
525.499389648,1284.45
525.784973145,1332.25
526.070617676,1379.75
526.356140137,1340.925
526.641723633,1348.45
526.927307129,1421.075
527.212768555,1432.75
527.498291016,1410.025
527.783752441,1401.475
528.069213867,1375.2
528.354675293,1402.175
528.640014648,1598.55
528.925476074,1681.55
529.21081543,1583.7
529.496154785,1568.1
529.781555176,1523.825
530.066833496,1524.55
530.352050781,1559.525
530.637390137,1537.725
530.922607422,1541.45
531.207824707,1539.975
531.493041992,1525.075
531.778198242,1611.8
532.063354492,1596.85
532.348571777,1515.925
532.633666992,1542.825
532.918762207,1640.35
533.203857422,1724.125
533.488891602,1764.275
533.773925781,1703.825
534.059020996,1673.3
534.343933105,1703.05
534.628967285,1676.2
534.91394043,1683.125
535.198852539,1702.95
535.483703613,1666.925
535.768676758,1604.7
536.053527832,1610.775
536.338317871,1561.35
536.62322998,1492.025
536.90802002,1466.7
537.192810059,1487.55
537.477539062,1582.7
537.762329102,1634.35
538.047058105,1676.5
538.331726074,1715.425
538.616455078,1697.5
538.901123047,1675.575
539.18572998,1722.25
539.470397949,1727.35
539.755004883,1717.3
540.039550781,1670.025
540.32409668,1630.725
540.608703613,1666.575
540.893188477,1783.475
541.17767334,1795.625
541.462158203,1820.3
541.746643066,1748.225
542.031066895,1785.025
542.315429688,1844.875
542.59979248,1840.325
542.884216309,1827.025
543.168579102,1811.075
543.452941895,1821.65
543.737243652,1887.025
544.021484375,1946.1
544.305725098,1928.3
544.590026855,1893.175
544.874267578,1923.55
545.158447266,2004.075
545.442626953,1907.725
545.726806641,1774.0
546.010925293,1809.825
546.29510498,1845.075
546.579162598,1851.075
546.863220215,1879.025
547.147277832,1957.75
547.431335449,2062.2
547.715332031,2124.675
547.999328613,2262.55
548.283325195,2271.1
548.567260742,2089.875
548.851135254,2066.35
549.135070801,2036.0
549.419006348,1923.65
549.702819824,2043.725
549.986755371,2115.15
550.270507812,2071.475
550.554321289,2128.5
550.83807373,2148.75
551.121826172,2103.5
551.405517578,2113.175
551.689331055,2254.05
551.973022461,2523.45
552.256652832,2600.9
552.540344238,2484.85
552.823974609,2455.625
553.107543945,2425.1
553.391174316,2497.025
553.674743652,2566.125
553.958251953,2579.55
554.241821289,2596.95
554.525268555,2507.85
554.808776855,2513.15
555.092285156,2743.4
555.375671387,2836.85
555.659057617,2814.125
555.942504883,2865.275
556.225891113,2887.7
556.509216309,2860.025
556.792541504,2738.675
557.075866699,2827.95
557.359130859,2879.475
557.64239502,2880.275
557.92565918,2963.35
558.208862305,2924.6
558.49206543,2858.275
558.77532959,2886.1
559.058410645,2947.525
559.341552734,2929.65
559.624694824,2992.575
559.907775879,3075.55
560.190856934,3225.95
560.473937988,3213.875
560.756896973,3244.325
561.039978027,3295.5
561.322937012,3231.0
561.605895996,3225.85
561.88885498,3195.575
562.171813965,3186.025
562.454650879,3171.5
562.737548828,3214.05
563.020446777,3292.65
563.303283691,3330.2
563.58605957,3371.45
563.868896484,3382.6
564.151672363,3446.8
564.434387207,3489.875
564.717163086,3449.75
564.99987793,3498.15
565.282531738,3576.575
565.565185547,3496.825
565.847839355,3514.475
566.130432129,3652.775
566.413085938,3625.7
566.695678711,3630.5
566.978149414,3773.225
567.260681152,3952.6
567.543273926,4036.825
567.825744629,3919.925
568.108154297,3965.225
568.390686035,4101.925
568.673095703,4252.35
568.955505371,4318.125
569.237854004,4334.275
569.520202637,4661.6
569.802490234,4917.75
570.084838867,4892.85
570.367126465,4689.3
570.649414062,4704.825
570.93170166,5117.6
571.213928223,5233.05
571.496154785,4907.0
571.778381348,5183.425
572.06048584,5483.175
572.342590332,4938.3
572.624755859,4528.125
572.906860352,4609.225
573.188903809,5408.5
573.470947266,5704.6
573.752990723,5434.775
574.03503418,5533.5
574.317016602,5987.075
574.598937988,5752.0
574.88092041,5597.575
575.162841797,5814.65
575.444763184,5365.9
575.726623535,5085.25
576.008483887,5131.925
576.290344238,5608.575
576.572143555,5836.05
576.853881836,5900.925
577.135681152,5772.3
577.417419434,5842.25
577.699157715,6854.825
577.980895996,7080.275
578.262573242,6303.975
578.544128418,5746.35
578.825866699,5658.65
579.107421875,5315.5
579.388977051,5525.45
579.670593262,5990.225
579.952148438,5780.0
580.233642578,5896.15
580.515197754,6058.225
580.796691895,5673.225
581.078125,5878.225
581.359619141,7651.625
581.640991211,7752.6
581.922363281,6696.275
582.203796387,6776.825
582.485107422,6355.775
582.766418457,5869.75
583.047790527,5688.65
583.329040527,5542.175
583.610290527,5378.6
583.891540527,5510.35
584.172790527,5878.075
584.453918457,5889.475
584.735107422,5957.475
585.016235352,6493.525
585.297363281,6453.425
585.578552246,6217.2
585.859619141,6174.375
586.140625,5895.45
586.421630859,5712.4
586.702697754,5789.6
586.983642578,6047.775
587.264648438,6234.075
587.545654297,6159.6
587.826477051,6106.675
588.107421875,5881.45
588.388305664,5932.65
588.669189453,6017.375
588.950012207,5829.725
589.230834961,5748.825
589.511657715,5837.75
589.792358398,5937.9
590.073120117,5946.25
590.353881836,5907.95
590.63458252,5944.475
590.915283203,5879.575
591.195922852,5875.3
591.4765625,5925.35
591.757202148,5954.075
592.037780762,5945.5
592.31829834,5957.825
592.598937988,6198.6
592.879394531,6389.725
593.159912109,6276.975
593.440429688,6226.375
593.720825195,6186.1
594.001281738,6184.7
594.281677246,6089.175
594.562072754,6100.35
594.842407227,6214.2
595.122802734,6265.525
595.403137207,6210.925
595.683410645,6199.475
595.963623047,6197.175
596.243896484,6117.425
596.524169922,6124.95
596.804382324,6134.425
597.084533691,6188.075
597.364746094,6227.5
597.644836426,6235.175
597.924987793,6222.95
598.205078125,6180.85
598.485107422,6215.675
598.765197754,6358.075
599.045227051,6414.575
599.325195312,6290.9
599.605224609,6210.325
599.885192871,6287.825
600.165100098,6364.825
600.445007324,6280.0
600.724914551,6264.6
601.004760742,6317.5
601.284667969,6325.4
601.56451416,6264.525
601.844238281,6282.475
602.124084473,6289.85
602.403808594,6271.3
602.683532715,6325.975
602.963256836,6291.0
603.242919922,6365.6
603.522583008,6397.8
603.802246094,6360.15
604.081848145,6327.575
604.36138916,6294.5
604.641052246,6318.5
604.920532227,6268.075
605.200073242,6335.225
605.479614258,6346.125
605.759094238,6396.7
606.038574219,6403.15
606.317932129,6328.075
606.597412109,6318.525
606.87677002,6332.575
607.15612793,6368.225
607.435546875,6368.85
607.714782715,6377.425
607.99407959,6327.525
608.273376465,6322.9
608.552612305,6358.525
608.831848145,6384.2
609.111083984,6372.45
609.390258789,6328.45
609.669433594,6325.025
609.948608398,6407.65
610.227722168,6376.525
610.506713867,6302.25
610.785888672,6325.2
611.064880371,6333.4
611.34387207,6345.125
611.622924805,6325.125
611.901916504,6312.775
612.180847168,6281.125
612.459777832,6278.65
612.738647461,6264.425
613.01751709,6260.475
613.296447754,6199.95
613.575317383,6175.225
613.854064941,6090.4
614.132873535,6007.55
614.411621094,5939.75
614.690368652,5896.15
614.969177246,5821.075
615.247802734,5740.85
615.526489258,5698.625
615.805175781,5588.375
616.08380127,5471.8
616.362365723,5390.075
616.640991211,5326.375
616.919555664,5281.5
617.198059082,5400.725
617.4765625,5712.025
617.755126953,5867.075
618.033569336,5886.875
618.311950684,5879.75
618.590454102,5892.525
618.868774414,5838.95
619.147155762,5886.0
619.425598145,5849.1
619.703857422,5870.2
619.982177734,5865.775
620.260498047,5858.85
620.538757324,5821.975
620.816955566,5787.75
621.095214844,5734.875
621.373413086,5764.45
621.651550293,5811.725
621.929748535,5857.3
622.207824707,5826.65
622.485900879,5859.3
622.764038086,5841.2
623.042053223,5902.7
623.320007324,5907.65
623.598083496,5914.45
623.876037598,5896.525
624.153991699,5932.1
624.432006836,5916.725
624.709838867,5949.5
624.987731934,5926.225
625.265563965,5944.3
625.543395996,5969.475
625.821228027,5995.75
626.098999023,5987.375
626.376831055,6044.95
626.654541016,6065.925
626.932250977,6111.725
627.209960938,6154.775
627.487670898,6187.425
627.765319824,6190.875
628.04296875,6196.675
628.320495605,6200.3
628.598083496,6194.575
628.875671387,6235.4
629.153259277,6265.65
629.430725098,6339.4
629.708251953,6330.45
629.985656738,6352.025
630.263122559,6405.6
630.540588379,6421.525
630.817932129,6447.175
631.095275879,6497.425
631.372680664,6543.475
631.649963379,6600.625
631.927246094,6637.375
632.204589844,6688.575
632.481811523,6745.225
632.759033203,6843.225
633.036254883,6843.1
633.313415527,6947.725
633.590576172,7004.7
633.867736816,7128.55
634.144836426,7178.7
634.421875,7226.625
634.698913574,7292.9
634.976013184,7380.525
635.252990723,7442.55
635.529968262,7465.125
635.807006836,7574.95
636.08392334,7543.925
636.360839844,7464.95
636.637756348,7318.675
636.914611816,7272.9
637.191467285,7262.225
637.468261719,7365.1
637.745056152,7337.05
638.021789551,7356.1
638.298583984,7326.4
638.575317383,7397.75
638.851989746,7387.65
639.12878418,7432.475
639.405395508,7400.25
639.682006836,7408.775
639.958618164,7416.25
640.235229492,7400.425
640.511779785,7481.325
640.788330078,7443.3
641.064880371,7461.825
641.341308594,7439.625
641.617797852,7459.225
641.894226074,7432.475
642.170654297,7482.925
642.44708252,7453.425
642.723388672,7450.475
642.999755859,7438.775
643.276123047,7474.875
643.552429199,7439.625
643.828674316,7437.15
644.104919434,7411.125
644.381164551,7390.05
644.657348633,7426.8
644.933532715,7395.55
645.209716797,7367.075
645.485839844,7385.6
645.761901855,7377.575
646.038024902,7336.925
646.314086914,7389.775
646.590087891,7350.25
646.866149902,7378.2
647.142150879,7358.15
647.41809082,7339.35
647.694030762,7351.775
647.969970703,7315.35
648.245788574,7367.3
648.521728516,7336.45
648.797546387,7326.9
649.073303223,7354.15
649.349182129,7328.4
649.624938965,7345.1
649.900634766,7336.125
650.176391602,7318.25
650.452087402,7310.225
650.727783203,7299.9
651.003479004,7338.325
651.279052734,7332.175
651.554626465,7327.2
651.83026123,7320.675
652.105773926,7339.15
652.381286621,7275.225
652.656860352,7298.275
652.932312012,7352.375
653.207763672,7341.825
653.483215332,7388.95
653.758605957,7342.775
654.033935547,7353.45
654.309326172,7336.9
654.584716797,7367.175
654.859985352,7340.65
655.135253906,7397.2
655.410583496,7421.7
655.685791016,8565.85
655.9609375,13254.825
656.236206055,12965.35
656.511291504,8636.225
656.786437988,7609.275
657.061645508,7467.675
657.336669922,7441.85
657.611694336,7492.0
657.886779785,7518.4
658.161804199,7563.725
658.436828613,7520.825
658.711791992,7531.2
658.986755371,7541.275
659.261657715,7539.1
659.536621094,7547.875
659.811401367,7560.75
660.086303711,7591.175
660.36114502,7573.3
660.635864258,7573.9
660.910644531,7636.65
661.185424805,7622.45
661.460205078,7629.275
661.734863281,7660.65
662.009521484,7633.575
662.284179688,7652.95
662.558776855,7693.725
662.833435059,7747.15
663.108032227,7750.775
663.382568359,7731.625
663.657043457,7769.625
663.93157959,7813.125
664.206054688,7756.275
664.48046875,7826.625
664.755004883,7851.7
665.02935791,7855.1
665.303710938,7877.025
665.578125,7919.625
665.852416992,7922.925
666.126708984,7901.825
666.401062012,7923.725
666.675292969,7963.4
666.949462891,7952.425
667.223754883,7978.95
667.497924805,8039.475
667.772094727,8060.3
668.046264648,8014.275
668.3203125,8084.375
668.594421387,8112.675
668.868469238,8122.025
669.14251709,8136.675
669.416503906,8172.4
669.690551758,8158.075
669.964477539,8194.95
670.23840332,8202.15
670.512329102,8193.5
670.786254883,8154.775
671.060058594,8244.425
671.333984375,8276.85
671.607788086,8283.325
671.881530762,8270.375
672.155334473,8299.85
672.429077148,8320.7
672.702758789,8365.925
672.97644043,8317.35
673.25012207,8350.725
673.523742676,8359.825
673.797302246,8359.525
674.070922852,8436.525
674.344482422,8408.3
674.618041992,8438.875
674.891601562,8414.8
675.165100098,8421.4
675.438476562,8446.675
675.711975098,8481.95
675.985412598,8465.925
676.258789062,8461.7
676.532165527,8491.425
676.805480957,8496.575
677.078796387,8503.425
677.352111816,8553.15
677.625366211,8583.7
677.898620605,8566.75
678.171875,8660.45
678.445007324,8613.775
678.718200684,8631.9
678.991394043,8630.6
679.264404297,8621.075
679.537536621,8646.85
679.81060791,8668.625
680.083679199,8686.5
680.356689453,8704.675
680.629699707,8706.4
680.902648926,8673.225
681.175598145,8737.65
681.448547363,8766.15
681.721435547,8721.45
681.99420166,8729.075
682.267150879,8722.225
682.539916992,8796.775
682.812744141,8809.5
683.085510254,8782.575
683.358215332,8807.775
683.63092041,8821.825
683.903625488,8828.475
684.176330566,8815.45
684.448913574,8783.275
684.721557617,8790.15
684.99420166,8857.55
685.266662598,8862.45
685.539245605,8866.05
685.811767578,8923.875
686.084289551,8923.175
686.356689453,8937.675
686.629150391,9001.775
686.901550293,9002.275
687.17401123,8993.725
687.446350098,9006.25
687.718688965,9044.975
687.990966797,9085.975
688.263305664,9085.425
688.535522461,9053.175
688.807739258,9059.725
689.079956055,9104.4
689.352172852,9119.2
689.624328613,9150.425
689.896484375,9173.8
690.168518066,9186.475
690.440612793,9221.55
690.71270752,9232.325
690.984741211,9230.9
691.256713867,9282.675
691.528747559,9259.8
691.800720215,9282.175
692.072631836,9327.825
692.344543457,9346.975
692.616394043,9370.05
692.888244629,9384.35
693.160095215,9409.95
693.431945801,9476.675
693.703674316,9450.9
693.975463867,9435.6
694.247131348,9504.575
694.518859863,9478.35
694.790588379,9516.45
695.062255859,9556.675
695.33380127,9500.775
695.60546875,9532.2
695.87701416,9546.8
696.148498535,9592.475
696.42010498,9588.975
696.691589355,9604.975
696.96307373,9618.525
697.234558105,9659.525
697.50592041,9681.375
697.777282715,9695.525
698.048706055,9675.55
698.320068359,9752.875
698.591308594,9726.575
698.862670898,9718.425
699.133972168,9762.075
699.405151367,9766.225
699.676391602,9848.05
699.947570801,9778.55
700.21875,9802.4
700.489868164,9821.1
700.761047363,9855.35
701.032104492,9914.6
701.303100586,9858.825
701.57421875,9914.4
701.845214844,9940.775
702.116149902,9980.65
702.387207031,9932.225
702.65814209,9952.875
702.928955078,9989.6
703.199951172,9953.4
703.47076416,9937.1
703.741577148,9944.85
704.012451172,10028.325
704.28314209,9990.35
704.553955078,9990.05
704.824707031,10073.325
705.095397949,10065.05
705.366027832,10048.3
705.63671875,10086.375
705.907348633,10029.075
706.17791748,10043.125
706.448486328,10090.4
706.719055176,10107.2
706.989562988,10116.45
707.260131836,10147.825
707.530517578,10142.9
707.800964355,10181.875
708.071411133,10134.425
708.341796875,10158.375
708.612182617,10103.9
708.882446289,10084.15
709.152893066,10124.275
709.423156738,10150.475
709.693359375,10150.4
709.963623047,10186.875
710.233825684,10218.4
710.503967285,10169.85
710.774169922,10206.3
711.044311523,10170.65
711.31439209,10158.5
711.584533691,10202.55
711.854553223,10233.775
712.124572754,10262.925
712.39465332,10207.925
712.664611816,10252.975
712.934509277,10304.825
713.204467773,10240.625
713.474365234,10280.7
713.74420166,10258.925
714.014099121,10283.6
714.283874512,10269.525
714.553710938,10308.175
714.823486328,10304.425
715.093200684,10307.55
715.362915039,10331.475
715.632629395,10339.05
715.902282715,10328.35
716.171875,10277.825
716.441589355,10336.25
716.711181641,10284.025
716.980712891,10291.7
717.250244141,10314.35
717.519775391,10299.45
717.78918457,10319.575
718.058654785,10370.825
718.328125,10446.925
718.597473145,10358.55
718.866882324,10352.5
719.136230469,10361.95
719.405578613,10415.575
719.674865723,10445.9
719.944152832,10404.325
720.213439941,10370.725
720.48260498,10412.45
720.75177002,10448.025
721.020996094,10454.825
721.290100098,10442.2
721.559204102,10430.025
721.828308105,10458.75
722.097351074,10433.15
722.366455078,10422.35
722.635437012,10410.525
722.904418945,10399.275
723.173400879,10436.45
723.442321777,10433.225
723.711181641,10389.925
723.980102539,10466.825
724.248962402,10421.525
724.51776123,10437.275
724.786560059,10472.275
725.055358887,10473.025
725.324035645,10437.725
725.592834473,10489.0
725.86151123,10459.475
726.130187988,10474.8
726.398803711,10427.9
726.667419434,10455.25
726.935974121,10455.95
727.204528809,10421.15
727.473083496,10389.15
727.741638184,10379.725
728.010070801,10351.15
728.278564453,10337.675
728.546936035,10366.925
728.815368652,10265.725
729.08380127,10177.9
729.352111816,10159.8
729.620361328,10071.15
729.88873291,10164.825
730.156982422,10204.8
730.425231934,10208.6
730.693481445,10186.55
730.961669922,10259.65
731.229797363,10321.9
731.49798584,10348.725
731.766113281,10382.3
732.034118652,10503.825
732.302246094,10563.4
732.570251465,10593.325
732.838256836,10620.0
733.106262207,10741.0
733.374145508,10781.7
733.642089844,10847.525
733.909973145,10846.4
734.177856445,10975.575
734.445678711,11058.35
734.713562012,11174.725
734.981323242,11152.325
735.249084473,11223.275
735.516845703,11378.875
735.784545898,11425.525
736.052185059,11466.55
736.319885254,11624.15
736.587524414,11650.025
736.855102539,11716.35
737.122619629,11880.15
737.390197754,11934.025
737.657714844,12070.85
737.925170898,12097.975
738.192749023,12270.575
738.460144043,12324.175
738.727539062,12362.275
738.994995117,12531.95
739.262329102,12579.625
739.529663086,12748.625
739.79699707,12766.45
740.06427002,12858.025
740.331481934,12930.625
740.598754883,13058.225
740.865905762,13008.25
741.133056641,13193.025
741.40032959,13202.65
741.667358398,13306.75
741.934448242,13330.125
742.201599121,13339.375
742.468566895,13482.55
742.735534668,13570.85
743.002563477,13603.15
743.26953125,13549.8
743.536437988,13647.2
743.803405762,13735.575
744.0703125,13691.35
744.337097168,13838.525
744.604003906,13741.85
744.870727539,13838.975
745.137512207,13844.95
745.40423584,13862.05
745.670959473,13840.95
745.93762207,13897.55
746.204284668,13956.6
746.470947266,13974.475
746.737548828,13960.325
747.004089355,13991.9
747.270751953,13963.425
747.53717041,14018.95
747.803710938,13983.65
748.070251465,13930.325
748.336608887,13926.35
748.603027344,13878.125
748.869445801,13905.675
749.135803223,13895.2
749.402099609,13887.65
749.668457031,13926.025
749.934753418,13902.1
750.20098877,13843.925
750.467224121,13898.725
750.733459473,13874.525
750.999572754,13842.575
751.26574707,13743.75
751.531860352,13801.025
751.797912598,13769.9
752.064025879,13694.1
752.330078125,13714.025
752.596069336,13662.725
752.862060547,13648.95
753.127990723,13638.05
753.393920898,13619.875
753.659912109,13578.7
753.925720215,13605.75
754.19152832,13564.2
754.457397461,13490.725
754.723144531,13475.9
754.988952637,13432.35
755.254699707,13418.375
755.520385742,13426.75
755.786071777,13422.05
756.051696777,13400.075
756.317382812,13335.55
756.582946777,13295.725
756.848510742,13302.75
757.114074707,13270.725
757.379577637,13255.95
757.645080566,13326.975
757.910583496,13253.15
758.175964355,13175.35
758.441345215,13174.125
758.706848145,13000.2
758.972106934,12982.625
759.237426758,13043.1
759.502807617,13065.45
759.768005371,13043.25
760.03326416,13028.975
760.298522949,12937.475
760.563659668,13005.55
760.828857422,12920.75
761.093994141,12922.5
761.359130859,12845.1
761.624206543,12833.5
761.889282227,12784.75
762.15423584,12739.0
762.419250488,12749.925
762.684265137,12698.125
762.949157715,12716.275
763.214050293,12715.725
763.479003906,12686.275
763.743835449,12629.575
764.008666992,12608.25
764.2734375,12558.75
764.538208008,12644.05
764.802978516,12635.225
765.067687988,12620.525
765.332397461,12598.05
765.597045898,12559.475
765.861694336,12489.125
766.126342773,12436.225
766.390930176,12429.9
766.655395508,12400.725
766.920043945,12361.725
767.184509277,12392.15
767.448974609,12406.05
767.713439941,12351.4
767.977783203,12287.45
768.2421875,12331.925
768.506591797,12283.375
768.770874023,12397.925
769.03515625,12341.3
769.299499512,12287.2
769.563720703,12287.25
769.827941895,12223.475
770.092163086,12239.775
770.356323242,12188.225
770.620483398,12243.425
770.88458252,12257.525
771.148681641,12237.4
771.412719727,12206.5
771.676757812,12228.15
771.940734863,12146.225
772.204711914,12142.125
772.468688965,12129.1
772.73260498,12128.65
772.996459961,12141.2
773.260314941,10838.175
773.524169922,1363.175
773.787963867,158.3
774.051696777,124.125
774.315551758,120.425
774.579223633,121.475
774.842895508,119.025
775.106567383,122.325
775.370239258,117.575
775.633789062,121.125
775.897399902,124.875
776.160949707,116.775
776.424499512,120.5
776.687988281,119.85
776.951477051,126.325
777.214904785,121.275
777.47833252,122.075
