191.299911499,100.2
191.603515625,102.025
191.907119751,95.575
192.210693359,103.875
192.514251709,99.275
192.817810059,103.05
193.121368408,101.225
193.42489624,104.7
193.728408813,97.375
194.031936646,99.425
194.33543396,94.925
194.638916016,113.725
194.94241333,96.9
195.245880127,98.175
195.549331665,95.375
195.852767944,99.3
196.156204224,191.475
196.459625244,185.8
196.763015747,188.975
197.066436768,196.95
197.369812012,190.375
197.673187256,193.25
197.9765625,187.4
198.279922485,187.225
198.583251953,184.475
198.886581421,190.575
199.18989563,196.3
199.493209839,195.075
199.79649353,181.65
200.09979248,199.175
200.403076172,188.375
200.706314087,191.45
201.009567261,191.075
201.312820435,188.9
201.616027832,181.125
201.919235229,175.95
202.222457886,187.0
202.525634766,187.05
202.828826904,177.5
203.132003784,182.075
203.435150146,181.075
203.738296509,181.775
204.041412354,175.775
204.344558716,184.725
204.647659302,185.95
204.950759888,184.7
205.253845215,184.725
205.556930542,180.475
205.859985352,179.775
206.163024902,181.85
206.466079712,183.625
206.769104004,196.275
207.072113037,184.35
207.375137329,185.2
207.678131104,185.9
207.981109619,188.475
208.284088135,180.525
208.587036133,187.575
208.889984131,186.4
209.19291687,189.725
209.495849609,188.6
209.798751831,193.225
210.101654053,192.125
210.404556274,197.875
210.707427979,191.7
211.010269165,202.5
211.31312561,201.925
211.615982056,194.675
211.918807983,201.2
212.221618652,195.775
212.524429321,193.225
212.827224731,205.425
213.130004883,201.4
213.432769775,201.7
213.735534668,199.9
214.038269043,207.325
214.341003418,203.775
214.643737793,208.775
214.946456909,213.725
215.249145508,216.125
215.551834106,216.375
215.854507446,213.75
216.157165527,217.875
216.45980835,217.825
216.762451172,226.95
217.065078735,222.375
217.36769104,222.325
217.670303345,232.875
217.972885132,232.7
218.275466919,235.025
218.578048706,234.3
218.880599976,250.45
219.183120728,244.65
219.485656738,254.625
219.788192749,273.475
220.090682983,289.975
220.393188477,322.125
220.695663452,365.225
220.998138428,407.875
221.300582886,470.925
221.603042603,530.7
221.905487061,608.75
222.207901001,693.4
222.510299683,798.375
222.812728882,921.9
223.115097046,1045.7
223.41746521,1173.55
223.719848633,1313.2
224.022171021,1452.35
224.324508667,1600.925
224.626846313,1772.825
224.929168701,1922.0
225.231460571,2098.225
225.533737183,2241.45
225.836013794,2417.625
226.138290405,2566.925
226.440536499,2723.625
226.742767334,2876.025
227.044998169,3012.7
227.347213745,3181.55
227.649429321,3307.15
227.951629639,3417.0
228.253799438,3536.125
228.555953979,3617.825
228.858123779,3744.625
229.160263062,3822.825
229.462371826,3901.85
229.764511108,4004.85
230.066619873,4063.725
230.36869812,4164.6
230.670776367,4220.1
230.972854614,4292.575
231.274902344,4380.925
231.576950073,4464.75
231.878967285,4515.75
232.180999756,4626.825
232.48298645,4683.175
232.784988403,4738.4
233.086975098,4790.825
233.388946533,4849.6
233.69090271,4917.875
233.992858887,4958.825
234.294769287,4946.225
234.596694946,5000.7
234.898605347,5006.725
235.200500488,4982.825
235.502380371,4987.275
235.804244995,4978.1
236.106109619,4926.425
236.407958984,4876.475
236.709777832,4845.9
237.011581421,4813.05
237.313400269,4757.1
237.615203857,4671.65
237.916976929,4638.575
238.21875,4552.55
238.520507812,4467.525
238.822250366,4410.45
239.12399292,4302.075
239.425704956,4249.3
239.727401733,4127.55
240.02911377,4055.775
240.330780029,3925.775
240.632446289,3826.55
240.93409729,3738.875
241.23576355,3642.475
241.537384033,3566.75
241.839004517,3460.65
242.140594482,3352.125
242.442199707,3265.725
242.743774414,3152.95
243.045333862,3049.55
243.346923828,2961.75
243.648452759,2861.325
243.949966431,2734.425
244.251495361,2656.6
244.552993774,2559.725
244.854492188,2424.4
245.155975342,2344.125
245.457443237,2249.675
245.758880615,2140.325
246.060333252,2054.175
246.36177063,1945.8
246.66317749,1865.25
246.964569092,1768.175
247.265945435,1698.85
247.567337036,1627.15
247.86869812,1576.45
248.170059204,1497.45
248.471389771,1427.775
248.772705078,1368.8
249.074035645,1313.775
249.375335693,1260.8
249.676620483,1227.575
249.977890015,1187.875
250.279159546,1157.625
250.58039856,1114.625
250.881637573,1078.85
251.182876587,1042.2
251.484069824,1023.575
251.785263062,989.625
252.086456299,974.0
252.387619019,937.375
252.688781738,918.2
252.989929199,901.675
253.291061401,887.775
253.592178345,890.0
253.893280029,866.5
254.194366455,859.1
254.49546814,832.225
254.796524048,814.9
255.097579956,811.125
255.398620605,790.6
255.699645996,796.575
256.000640869,773.125
256.30166626,776.025
256.602661133,767.75
256.903656006,749.725
257.204589844,757.55
257.505523682,749.625
257.80645752,739.875
258.107391357,743.15
258.408294678,729.075
258.709228516,729.35
259.010070801,723.05
259.310943604,730.275
259.611846924,725.875
259.912658691,721.85
260.213500977,727.6
260.514343262,731.125
260.815124512,732.325
261.115936279,733.175
261.416717529,745.95
261.717468262,754.425
262.018218994,755.375
262.318969727,771.675
262.619689941,789.2
262.920410156,805.625
263.221130371,824.425
263.521789551,841.95
263.822479248,875.975
264.123138428,902.725
264.42376709,927.35
264.72442627,944.5
265.025054932,966.4
265.325622559,1006.375
265.626251221,1026.0
265.926818848,1069.3
266.227386475,1075.825
266.527954102,1106.2
266.828460693,1158.425
267.12902832,1161.4
267.429534912,1206.725
267.730010986,1237.925
268.030517578,1265.525
268.330993652,1294.4
268.631439209,1332.35
268.931915283,1380.425
269.232299805,1417.775
269.532745361,1461.1
269.8331604,1505.6
270.133544922,1552.55
270.433929443,1611.5
270.734313965,1659.65
271.034637451,1716.55
271.334991455,1765.125
271.635314941,1849.575
271.935638428,1917.575
272.235931396,1989.75
272.536254883,2072.35
272.836486816,2170.35
273.136749268,2262.25
273.437011719,2381.925
273.737213135,2482.625
274.037445068,2605.525
274.337677002,2722.95
274.6378479,2837.575
274.938049316,2984.825
275.238220215,3116.375
275.538360596,3283.85
275.838500977,3405.525
276.138641357,3586.1
276.438751221,3711.775
276.738830566,3874.875
277.03894043,3994.3
277.338989258,4169.25
277.639038086,4320.85
277.939056396,4464.525
278.239105225,4623.525
278.539093018,4762.875
278.839141846,4911.825
279.139129639,5055.175
279.439086914,5220.225
279.739044189,5380.95
280.039001465,5541.325
280.338928223,5655.575
280.63885498,5811.075
280.938781738,5958.525
281.238647461,6075.1
281.538513184,6178.15
281.838409424,6318.025
282.138244629,6478.825
282.438079834,6560.05
282.737945557,6702.875
283.037719727,6759.225
283.337524414,6905.95
283.637298584,6977.2
283.937072754,7087.175
284.236816406,7182.025
284.536560059,7262.625
284.836303711,7351.075
285.136016846,7469.125
285.43572998,7531.1
285.735412598,7592.55
286.035064697,7675.7
286.334747314,7778.925
286.634368896,7837.9
286.933990479,7830.35
287.233642578,7848.225
287.533203125,7875.7
287.832824707,7875.425
288.132385254,7818.325
288.431945801,7739.55
288.731506348,7644.825
289.031036377,7539.35
289.330566406,7448.75
289.630065918,7458.5
289.92956543,7475.45
290.229034424,7629.475
290.528503418,7793.95
290.827941895,7983.575
291.127380371,8183.675
291.42678833,8357.1
291.726226807,8516.8
292.025604248,8596.125
292.324981689,8639.725
292.624359131,8651.175
292.923736572,8722.875
293.223052979,8760.65
293.522369385,8767.25
293.821685791,8743.15
294.12097168,8734.15
294.420257568,8689.075
294.719543457,8689.4
295.018768311,8726.8
295.318023682,8633.05
295.617248535,8600.375
295.916442871,8529.75
296.215667725,8485.875
296.514862061,8339.85
296.813995361,8138.875
297.11315918,7924.85
297.412322998,7794.725
297.711425781,7768.55
298.010559082,7952.85
298.309631348,8174.975
298.608734131,8392.0
298.907806396,8626.175
299.206848145,8788.875
299.505889893,8883.45
299.804901123,8991.575
300.103912354,9099.325
300.402954102,9164.575
300.701904297,9261.8
301.00088501,9309.525
301.299835205,9410.4
301.5987854,9448.15
301.897735596,9559.775
302.196624756,9630.025
302.495513916,9707.3
302.794403076,9704.125
303.093292236,9798.275
303.392120361,9853.425
303.690979004,9924.025
303.989837646,10022.225
304.288604736,10038.125
304.587402344,10048.8
304.886199951,10131.85
305.184967041,10174.7
305.483734131,10228.025
305.782501221,10242.95
306.081176758,10252.95
306.37991333,10297.45
306.678619385,10308.6
306.977294922,10354.425
307.275970459,10370.025
307.574645996,10392.9
307.873260498,10336.775
308.171875,10376.75
308.470489502,10361.0
308.769104004,10307.375
309.067687988,10309.2
309.366241455,10315.4
309.664794922,10253.45
309.963348389,10271.175
310.261871338,10267.35
310.560394287,10273.35
310.858856201,10317.2
311.157348633,10360.175
311.455810547,10342.425
311.754272461,10361.075
312.052703857,10456.175
312.351135254,10479.3
312.649536133,10480.85
312.947937012,10462.575
313.246307373,10522.85
313.544647217,10495.025
313.843017578,10427.125
314.141387939,10426.25
314.439697266,10437.9
314.738006592,10375.525
315.036315918,10276.25
315.334564209,10184.3
315.6328125,10136.35
315.931091309,10073.95
316.229309082,9903.725
316.527526855,9786.225
316.825744629,9741.0
317.123901367,9624.15
317.422088623,9558.375
317.720245361,9571.475
318.0184021,9578.825
318.316497803,9637.275
318.614654541,9684.75
318.912750244,9768.875
319.21081543,9750.025
319.50894165,9799.45
319.806945801,9822.05
320.104980469,9795.525
320.403045654,9808.15
320.701049805,9737.4
320.999023438,9754.525
321.297027588,9676.15
321.595001221,9667.65
321.892913818,9616.45
322.190887451,9563.675
322.488830566,9534.65
322.786712646,9481.325
323.084625244,9352.475
323.382507324,9341.95
323.680358887,9242.275
323.978210449,9135.9
324.276062012,9103.225
324.573852539,9021.275
324.871643066,8953.1
325.169464111,8871.825
325.467224121,8844.6
325.764984131,8750.35
326.062744141,8667.8
326.360473633,8588.725
326.658203125,8503.8
326.955871582,8402.45
327.253570557,8343.9
327.551239014,8293.4
327.848907471,8209.9
328.146514893,8127.65
328.444152832,8058.075
328.741790771,7995.525
329.039367676,7908.85
329.336914062,7844.575
329.634521484,7762.7
329.932067871,7710.45
330.229553223,7636.9
330.527160645,7580.525
330.824615479,7495.375
331.12210083,7419.55
331.419586182,7292.6
331.717041016,7229.95
332.014465332,7153.075
332.311920166,7126.0
332.609313965,7057.025
332.906707764,7024.175
333.204101562,7013.75
333.501495361,7037.9
333.798828125,7071.025
334.096160889,7128.25
334.39352417,7200.85
334.690795898,7227.9
334.988098145,7296.125
335.285400391,7354.275
335.582641602,7358.85
335.879882812,7394.95
336.177124023,7426.725
336.474334717,7484.85
336.77154541,7485.575
337.068725586,7505.125
337.365905762,7524.175
337.66305542,7542.9
337.960205078,7569.575
338.257324219,7587.125
338.554443359,7578.025
338.8515625,7627.6
339.148590088,7614.625
339.445648193,7598.05
339.742736816,7576.55
340.039764404,7567.025
340.336761475,7535.05
340.63381958,7456.05
340.930755615,7393.75
341.227722168,7330.325
341.524688721,7218.475
341.821624756,7184.825
342.118560791,7201.25
342.415496826,7291.925
342.712402344,7443.25
343.009246826,7623.2
343.306121826,7738.125
343.602966309,7813.7
343.899810791,7894.125
344.196624756,8006.025
344.493438721,8024.05
344.79019165,8055.6
345.086975098,8122.425
345.383758545,8158.125
345.680480957,8141.0
345.977203369,8151.975
346.273956299,8219.65
346.570617676,8196.05
346.86730957,8195.2
347.163970947,8180.15
347.460601807,8232.525
347.757232666,8223.575
348.053894043,8209.675
348.350463867,8128.025
348.647064209,8065.425
348.943634033,8077.65
349.24017334,8110.025
349.536712646,8015.35
349.833251953,8035.75
350.129760742,7964.6
350.426208496,7977.125
350.722747803,7920.2
351.019195557,7925.3
351.315612793,7840.625
351.612060547,7788.2
351.908508301,7739.475
352.204864502,7674.2
352.501281738,7618.05
352.797637939,7532.975
353.093963623,7413.55
353.390319824,7335.775
353.686645508,7266.8
353.982940674,7161.325
354.27923584,7114.375
354.575531006,7021.525
354.871765137,7019.7
355.167999268,6979.0
355.464233398,6971.225
355.760437012,6974.9
356.056640625,6930.775
356.352813721,6974.35
356.648956299,6943.825
356.945129395,6981.375
357.241271973,6938.8
357.537384033,6958.75
357.833496094,6890.9
358.129577637,6851.55
358.425628662,6812.575
358.721679688,6797.325
359.017730713,6748.75
359.313720703,6682.0
359.609710693,6631.95
359.905761719,6559.675
360.201721191,6504.825
360.497650146,6428.375
360.793609619,6403.0
361.089538574,6284.925
361.385437012,6200.325
361.681365967,6144.325
361.977233887,6079.4
362.273071289,5984.25
362.568908691,5860.375
362.864746094,5728.675
363.160552979,5589.975
363.456359863,5381.05
363.752166748,5217.2
364.047912598,5119.725
364.343658447,5081.975
364.639434814,5094.95
364.935119629,5130.225
365.230834961,5173.175
365.526550293,5186.25
365.822174072,5207.575
366.117858887,5218.325
366.413482666,5239.375
366.709075928,5256.225
367.004730225,5144.225
367.300292969,5118.925
367.595855713,5170.9
367.891448975,5039.65
368.186981201,4925.725
368.482513428,4866.775
368.778015137,4831.475
369.073547363,4779.15
369.36895752,4779.325
369.664428711,4660.325
369.95993042,4555.575
370.255310059,4480.625
370.550720215,4444.8
370.846160889,4392.375
371.14151001,4356.45
371.436859131,4305.0
371.73223877,4279.15
372.027557373,4235.1
372.322875977,4155.95
372.618164062,4115.5
372.913482666,4083.025
373.208709717,4055.85
373.503967285,3986.75
373.799194336,3925.5
374.094421387,3919.675
374.389648438,3891.125
374.684844971,3859.05
374.979980469,3895.575
375.275146484,3900.975
375.570281982,3909.075
375.865386963,3914.2
376.160522461,3852.7
376.455596924,3850.125
376.750640869,3910.4
377.045715332,3921.225
377.340759277,3933.55
377.635772705,3984.225
377.93081665,4009.15
378.225769043,4064.175
378.520751953,4139.75
378.815734863,4065.25
379.110656738,4211.4
379.405548096,4369.425
379.700500488,4213.4
379.995391846,4011.1
380.290252686,4046.725
380.585083008,4112.775
380.879974365,4148.875
381.17477417,4052.15
381.469543457,4015.85
381.764404297,3975.45
382.059143066,4009.625
382.353912354,4074.875
382.648651123,4149.575
382.943389893,4131.7
383.238067627,3964.4
383.532775879,3972.275
383.827484131,3896.075
384.12210083,3879.475
384.416778564,3833.575
384.711425781,3731.025
385.006011963,3772.425
385.300628662,3738.7
385.595184326,3794.675
385.88973999,3877.025
386.184295654,3979.05
386.478820801,4045.8
386.77331543,4119.2
387.067840576,4214.775
387.362335205,4286.875
387.656768799,4366.025
387.951202393,4399.075
388.245635986,4418.175
388.540039062,4511.525
388.834472656,4560.025
389.128875732,4439.125
389.423187256,4251.575
389.717559814,4203.175
390.011871338,4301.2
390.306182861,4307.175
390.600463867,4319.775
390.894775391,4374.55
391.189025879,4416.1
391.48324585,4409.7
391.777526855,4441.325
392.071685791,4608.35
392.365875244,4704.3
392.660064697,4765.95
392.95425415,5053.525
393.248382568,5053.075
393.542510986,4623.575
393.836608887,4454.775
394.130706787,4457.275
394.424804688,4395.9
394.71887207,4517.65
395.012878418,4491.6
395.306915283,4397.45
395.600921631,4343.25
395.894927979,4299.4
396.188903809,4354.75
396.482879639,4366.175
396.776794434,4538.5
397.070739746,4506.7
397.364654541,4536.75
397.658538818,4882.475
397.952423096,4907.175
398.246307373,4850.725
398.540100098,5348.65
398.833953857,5234.4
399.127746582,4800.325
399.421508789,4828.125
399.715301514,4762.475
400.009063721,4683.175
400.30279541,4542.35
400.596496582,4477.05
400.890258789,4630.675
401.183929443,4704.325
401.47756958,4614.075
401.771240234,4392.15
402.064880371,4414.05
402.35848999,4460.85
402.652130127,4357.25
402.945678711,4432.375
403.239257812,4402.1
403.532775879,4335.8
403.82635498,4392.425
404.119842529,4335.725
404.413360596,4317.575
404.706848145,4382.725
405.000274658,4312.475
405.293762207,4386.225
405.587188721,4450.85
405.880584717,4294.725
406.17401123,4119.675
406.467407227,3955.85
406.760742188,3971.175
407.054107666,4005.775
407.347442627,3944.55
407.640716553,3917.425
407.934051514,3979.875
408.227325439,4063.825
408.520568848,4262.075
408.813842773,4339.975
409.107086182,4167.4
409.400238037,4139.575
409.693450928,4063.2
409.986633301,4177.8
410.279754639,4100.15
410.572875977,3832.625
410.86605835,3773.475
411.159118652,3815.25
411.452209473,3811.5
411.745330811,3699.3
412.038360596,3626.325
412.331390381,3639.9
412.624420166,3700.8
412.917388916,3615.2
413.210388184,3462.3
413.503387451,3440.3
413.796295166,3350.6
414.089233398,3187.05
414.382141113,3120.5
414.675048828,3106.925
414.967926025,3127.05
415.260803223,3104.7
415.55368042,3130.775
415.846466064,3082.2
416.139282227,3170.525
416.432098389,3278.8
416.724853516,3262.075
417.017608643,3241.925
417.31036377,3246.125
417.603088379,3378.8
417.895782471,3357.125
418.188476562,3320.375
418.481140137,3397.575
418.773803711,3449.05
419.066436768,3437.05
419.359039307,3507.325
419.651641846,3515.7
419.944244385,3503.85
420.236816406,3485.35
420.529327393,3691.65
420.821899414,3776.25
421.114379883,3684.075
421.406860352,3978.35
421.699371338,4187.2
421.991821289,4148.7
422.284240723,3958.85
422.576721191,3811.875
422.869110107,3723.225
423.161468506,3671.325
423.453857422,3711.4
423.74621582,3603.575
424.038543701,3476.775
424.330871582,3427.0
424.623168945,3385.8
424.915435791,3524.575
425.207702637,3484.575
425.499969482,3435.875
425.792205811,3390.9
426.084411621,3125.1
426.376617432,3227.2
426.668762207,3289.775
426.9609375,3181.9
427.253082275,3287.9
427.545196533,3702.725
427.837310791,3449.55
428.129425049,3170.55
428.421447754,3373.675
428.713531494,3368.7
429.005554199,3375.675
429.297576904,3380.675
429.589599609,3812.425
429.881561279,4142.525
430.173522949,3929.3
430.465484619,3882.8
430.757415771,3970.2
431.049316406,3728.375
431.341186523,3500.75
431.633117676,3404.725
431.924957275,3096.375
432.21673584,3004.725
432.508636475,3144.775
432.800415039,3161.525
433.092163086,3068.875
433.383972168,3045.5
433.675689697,3775.2
433.967437744,4257.85
434.259155273,3295.55
434.550872803,2991.6
434.842498779,3049.9
435.134185791,3171.15
435.425842285,3221.725
435.717437744,3105.75
436.009063721,2921.225
436.30065918,3063.05
436.592224121,3436.375
436.883758545,3231.675
437.175323486,2951.625
437.466827393,2929.125
437.758331299,2955.35
438.049804688,2979.025
438.341247559,3058.6
438.63269043,3120.025
438.924163818,3113.05
439.215515137,3095.55
439.50692749,2976.55
439.798309326,2973.725
440.089660645,3005.225
440.380981445,2913.275
440.672332764,2895.0
440.963623047,3181.3
441.254882812,3656.55
441.546173096,3852.6
441.837402344,3590.875
442.128631592,3405.75
442.41986084,3379.425
442.711029053,3240.075
443.002197266,3330.525
443.293365479,3527.15
443.584503174,3664.975
443.875610352,3620.15
444.166717529,3373.225
444.457794189,3409.45
444.748840332,3407.125
445.039916992,3341.775
445.330932617,3445.975
445.621948242,3287.3
445.912963867,3079.625
446.203918457,3329.975
446.494812012,3579.525
446.785827637,3381.025
447.076721191,3177.325
447.367584229,3159.175
447.658447266,3124.025
447.949371338,3182.7
448.24017334,3048.025
448.530975342,2985.25
448.821838379,3169.875
449.112579346,3241.45
449.40335083,3151.025
449.694152832,3206.325
449.984863281,3209.3
450.27557373,3141.825
450.56628418,3201.775
450.856933594,3231.375
451.147583008,3064.425
451.438262939,2935.05
451.728881836,3167.475
452.019470215,3264.725
452.310089111,3050.25
452.600646973,3073.75
452.891174316,3133.575
453.181732178,2945.35
453.472229004,2816.75
453.762695312,2925.65
454.053222656,2950.1
454.343658447,2826.875
454.634063721,2756.45
454.924530029,2941.425
455.214935303,3097.875
455.505279541,3161.325
455.795715332,3019.175
456.086029053,2812.35
456.376312256,2789.85
456.666687012,2817.55
456.956939697,2942.15
457.247192383,2934.425
457.537445068,3026.65
457.827728271,3227.575
458.117919922,3131.7
458.408081055,3064.75
458.698303223,3259.35
458.988433838,3189.075
459.278564453,2988.75
459.568725586,3296.05
459.858825684,3417.25
460.148864746,3092.825
460.438995361,3048.95
460.729034424,3106.075
461.019042969,3120.4
461.309082031,3313.675
461.599060059,3197.5
461.889007568,2716.225
462.179016113,2523.3
462.468933105,2776.525
462.75881958,2875.825
463.048736572,2630.125
463.338592529,2913.35
463.628448486,3290.525
463.918365479,2974.2
464.2081604,3159.825
464.497924805,3123.875
464.787780762,3241.55
465.077514648,3582.325
465.367218018,3166.375
465.657012939,3379.45
465.946685791,3823.65
466.236358643,3408.075
466.526092529,2842.075
466.815734863,2834.4
467.105316162,2746.175
467.394927979,2791.575
467.684570312,2633.725
467.974121094,2725.875
468.263671875,2839.475
468.553222656,2613.025
468.842773438,2506.225
469.132232666,2393.8
469.42175293,2431.325
469.711212158,2411.225
470.000640869,2246.95
470.290100098,2324.575
470.579498291,2361.975
470.868835449,2363.1
471.158294678,2318.25
471.447601318,2292.1
471.736907959,2380.7
472.026275635,2455.3
472.315551758,2440.225
472.604797363,2411.9
472.894104004,2576.925
473.183319092,2700.45
473.47253418,2683.0
473.761779785,2676.15
474.05090332,2595.625
474.340087891,2561.35
474.629241943,2482.15
474.918365479,2659.6
475.207427979,2960.35
475.496551514,2994.475
475.785614014,2700.95
476.074645996,2484.6
476.363708496,2597.45
476.652679443,2755.1
476.941650391,2557.25
477.230682373,2387.05
477.519622803,2380.125
477.808502197,2552.425
478.097412109,2846.35
478.386352539,2786.35
478.675201416,2506.025
478.964050293,2381.55
479.25289917,2610.175
479.541717529,2663.225
479.830474854,2479.65
480.11932373,2882.975
480.408050537,3060.575
480.696777344,2662.75
480.985534668,2504.85
481.274200439,2623.775
481.562866211,2894.55
481.851593018,2916.375
482.140197754,2835.05
482.428833008,2673.25
482.717468262,2445.275
483.006011963,2492.55
483.294586182,2612.3
483.5831604,2667.85
483.871673584,2514.375
484.16015625,2684.625
484.448699951,2945.6
484.7371521,2992.975
485.02557373,2989.7
485.314025879,2683.7
485.602416992,4174.325
485.890777588,14752.1
486.179199219,13282.6
486.467559814,3579.15
486.755859375,2582.95
487.044219971,3017.0
487.332519531,3235.525
487.620758057,2772.0
487.908966064,2495.35
488.197265625,2258.825
488.485473633,2160.975
488.773651123,2276.65
489.061859131,2278.65
489.350006104,2242.6
489.638122559,2162.0
489.926300049,2195.525
490.214355469,2141.125
490.502441406,2079.825
490.790527344,2011.65
491.078552246,2222.35
491.366546631,2231.575
491.654602051,1959.55
491.942565918,2051.65
492.230499268,2104.65
492.518493652,2054.4
492.806396484,2098.825
493.094268799,1998.45
493.382202148,2048.8
493.670074463,2186.525
493.957885742,2007.65
494.245727539,2007.55
494.533508301,2193.2
494.821289062,2073.325
495.109100342,1886.2
495.396850586,1850.075
495.684539795,1790.025
495.972290039,2046.25
496.25994873,2434.925
496.547607422,2456.775
496.835296631,2256.725
497.122894287,1868.375
497.410522461,1772.575
497.6980896,1779.8
497.985687256,1742.05
498.273223877,1870.75
498.560760498,1951.225
498.848266602,1967.25
499.135772705,1944.775
499.423217773,2000.7
499.710693359,2120.05
499.998138428,2052.35
500.285522461,1855.65
500.572937012,1766.6
500.860290527,1833.825
501.147644043,1947.525
501.434997559,2222.35
501.722290039,2060.175
502.00958252,1796.75
502.296875,2105.5
502.584106445,2103.5
502.871337891,1894.15
503.158599854,1963.975
503.445770264,2064.2
503.732910156,2029.9
504.020141602,1813.525
504.307220459,1798.775
504.594329834,1849.025
504.881469727,1769.675
505.168518066,1847.85
505.455535889,1927.225
505.742614746,1790.775
506.029632568,1704.75
506.316589355,1936.275
506.603637695,2034.7
506.890563965,1811.65
507.177459717,1610.925
507.464385986,1509.325
507.751312256,1782.3
508.038146973,1878.15
508.325012207,1718.225
508.611877441,1796.7
508.898681641,1804.475
509.185424805,1612.5
509.472259521,1566.775
509.759002686,1661.2
510.045715332,1698.15
510.332458496,1642.7
510.619140625,1707.375
510.905761719,1611.075
511.192504883,1599.35
511.479095459,1647.125
511.765686035,1597.55
512.052307129,1498.0
512.338928223,1444.6
512.625427246,1498.75
512.91204834,1583.475
513.198486328,1547.55
513.484985352,1518.05
513.77142334,1420.525
514.057922363,1472.45
514.344299316,1479.175
514.63079834,1429.65
514.917175293,1415.65
515.203552246,1297.125
515.489868164,1275.875
515.776245117,1424.575
516.0625,1466.125
516.348815918,1358.4
516.635070801,1410.075
516.921325684,1469.575
517.207580566,1387.125
517.493774414,1283.9
517.779968262,1291.7
518.066101074,1339.875
518.352294922,1289.25
518.638366699,1283.575
518.924499512,1389.75
519.210632324,1475.175
519.496643066,1436.5
519.782714844,1312.6
520.068786621,1278.45
520.354736328,1223.0
520.640686035,1172.025
520.926757812,1238.225
521.212646484,1332.95
521.498535156,1335.4
521.784484863,1275.775
522.0703125,1192.325
522.356262207,1214.35
522.642089844,1292.675
522.927856445,1300.55
523.213684082,1291.85
523.499511719,1274.075
523.78527832,1320.225
524.070983887,1399.775
524.356750488,1365.65
524.64239502,1321.25
524.928039551,1309.275
525.213806152,1312.775
525.499389648,1302.925
525.784973145,1344.725
526.070617676,1402.8
526.356140137,1357.675
526.641723633,1368.9
526.927307129,1447.525
527.212768555,1454.675
527.498291016,1421.2
527.783752441,1430.775
528.069213867,1396.9
528.354675293,1427.175
528.640014648,1625.1
528.925476074,1717.25
529.21081543,1621.175
529.496154785,1590.05
529.781555176,1555.7
530.066833496,1567.075
530.352050781,1591.475
530.637390137,1571.225
530.922607422,1577.575
531.207824707,1571.15
531.493041992,1559.475
531.778198242,1649.025
532.063354492,1600.0
532.348571777,1555.525
532.633666992,1563.75
532.918762207,1665.275
533.203857422,1770.975
533.488891602,1796.8
533.773925781,1737.4
534.059020996,1703.95
534.343933105,1734.125
534.628967285,1705.525
534.91394043,1730.625
535.198852539,1744.5
535.483703613,1711.35
535.768676758,1643.7
536.053527832,1644.65
536.338317871,1600.4
536.62322998,1525.425
536.90802002,1496.225
537.192810059,1531.0
537.477539062,1616.625
537.762329102,1666.85
538.047058105,1710.35
538.331726074,1754.15
538.616455078,1742.15
538.901123047,1707.425
539.18572998,1766.625
539.470397949,1770.85
539.755004883,1756.25
540.039550781,1706.725
540.32409668,1661.925
540.608703613,1706.175
540.893188477,1837.875
541.17767334,1850.625
541.462158203,1837.725
541.746643066,1787.775
542.031066895,1834.975
542.315429688,1900.5
542.59979248,1884.0
542.884216309,1873.025
543.168579102,1856.425
543.452941895,1864.45
543.737243652,1936.2
544.021484375,1990.925
544.305725098,1977.2
544.590026855,1936.275
544.874267578,1968.55
545.158447266,2059.675
545.442626953,1944.175
545.726806641,1817.55
546.010925293,1843.925
546.29510498,1892.3
546.579162598,1879.475
546.863220215,1925.325
547.147277832,2022.7
547.431335449,2117.3
547.715332031,2193.85
547.999328613,2321.05
548.283325195,2328.05
548.567260742,2157.725
548.851135254,2132.775
549.135070801,2080.65
549.419006348,1974.825
549.702819824,2085.95
549.986755371,2178.225
550.270507812,2124.65
550.554321289,2192.15
550.83807373,2204.375
551.121826172,2140.825
551.405517578,2167.125
551.689331055,2308.5
551.973022461,2587.55
552.256652832,2669.4
552.540344238,2541.075
552.823974609,2517.825
553.107543945,2498.4
553.391174316,2568.2
553.674743652,2631.775
553.958251953,2639.275
554.241821289,2656.65
554.525268555,2580.55
554.808776855,2576.475
555.092285156,2814.525
555.375671387,2913.8
555.659057617,2896.45
555.942504883,2939.025
556.225891113,2970.675
556.509216309,2935.275
556.792541504,2835.15
557.075866699,2920.35
557.359130859,2969.975
557.64239502,2973.125
557.92565918,3060.525
558.208862305,3023.025
558.49206543,2945.325
558.77532959,2960.575
559.058410645,3036.175
559.341552734,3010.35
559.624694824,3083.125
559.907775879,3179.4
560.190856934,3310.825
560.473937988,3326.85
560.756896973,3362.475
561.039978027,3396.1
561.322937012,3323.875
561.605895996,3323.1
561.88885498,3287.275
562.171813965,3277.3
562.454650879,3278.775
562.737548828,3319.425
563.020446777,3410.025
563.303283691,3430.125
563.58605957,3480.9
563.868896484,3491.525
564.151672363,3557.375
564.434387207,3604.25
564.717163086,3560.55
564.99987793,3609.55
565.282531738,3695.45
565.565185547,3607.475
565.847839355,3619.0
566.130432129,3776.575
566.413085938,3754.375
566.695678711,3759.625
566.978149414,3901.575
567.260681152,4080.725
567.543273926,4180.525
567.825744629,4046.675
568.108154297,4074.875
568.390686035,4256.775
568.673095703,4382.075
568.955505371,4460.95
569.237854004,4507.475
569.520202637,4821.8
569.802490234,5087.775
570.084838867,5050.65
570.367126465,4838.65
570.649414062,4849.1
570.93170166,5302.725
571.213928223,5390.625
571.496154785,5093.3
571.778381348,5358.875
572.06048584,5670.1
572.342590332,5103.525
572.624755859,4699.7
572.906860352,4769.175
573.188903809,5612.4
573.470947266,5910.9
573.752990723,5628.2
574.03503418,5753.35
574.317016602,6225.95
574.598937988,5949.85
574.88092041,5800.2
575.162841797,6019.775
575.444763184,5580.4
575.726623535,5249.375
576.008483887,5302.775
576.290344238,5784.575
576.572143555,6027.45
576.853881836,6119.925
577.135681152,5991.325
577.417419434,6058.825
577.699157715,7139.5
577.980895996,7326.25
578.262573242,6516.525
578.544128418,5934.975
578.825866699,5856.875
579.107421875,5488.175
579.388977051,5711.025
579.670593262,6182.7
579.952148438,5983.625
580.233642578,6141.85
580.515197754,6260.1
580.796691895,5886.1
581.078125,6093.3
581.359619141,7905.925
581.640991211,8034.6
581.922363281,6946.175
582.203796387,7009.5
582.485107422,6580.575
582.766418457,6077.175
583.047790527,5907.6
583.329040527,5747.65
583.610290527,5591.425
583.891540527,5716.625
584.172790527,6087.975
584.453918457,6119.3
584.735107422,6199.625
585.016235352,6734.975
585.297363281,6690.1
585.578552246,6447.0
585.859619141,6384.825
586.140625,6116.35
586.421630859,5940.825
586.702697754,5990.45
586.983642578,6269.525
587.264648438,6481.65
587.545654297,6409.825
587.826477051,6338.3
588.107421875,6110.875
588.388305664,6156.875
588.669189453,6266.325
588.950012207,6087.15
589.230834961,5990.95
589.511657715,6099.475
589.792358398,6198.1
590.073120117,6194.725
590.353881836,6158.675
590.63458252,6184.625
590.915283203,6141.7
591.195922852,6130.25
591.4765625,6183.75
591.757202148,6226.725
592.037780762,6211.4
592.31829834,6192.8
592.598937988,6457.025
592.879394531,6646.925
593.159912109,6561.625
593.440429688,6466.675
593.720825195,6463.275
594.001281738,6420.125
594.281677246,6316.575
594.562072754,6356.8
594.842407227,6487.025
595.122802734,6523.225
595.403137207,6495.125
595.683410645,6454.95
595.963623047,6434.2
596.243896484,6383.375
596.524169922,6357.3
596.804382324,6402.725
597.084533691,6437.975
597.364746094,6481.325
597.644836426,6508.125
597.924987793,6472.975
598.205078125,6450.25
598.485107422,6476.45
598.765197754,6622.0
599.045227051,6686.925
599.325195312,6572.725
599.605224609,6508.95
599.885192871,6550.1
600.165100098,6613.3
600.445007324,6542.6
600.724914551,6541.875
601.004760742,6544.8
601.284667969,6572.9
601.56451416,6530.675
601.844238281,6522.775
602.124084473,6550.025
602.403808594,6565.25
602.683532715,6572.05
602.963256836,6567.825
603.242919922,6628.25
603.522583008,6670.175
603.802246094,6632.8
604.081848145,6607.4
604.36138916,6576.325
604.641052246,6603.525
604.920532227,6580.825
605.200073242,6626.975
605.479614258,6659.325
605.759094238,6674.7
606.038574219,6656.375
606.317932129,6598.475
606.597412109,6589.75
606.87677002,6625.125
607.15612793,6658.75
607.435546875,6657.0
607.714782715,6680.0
607.99407959,6629.175
608.273376465,6593.225
608.552612305,6610.675
608.831848145,6644.625
609.111083984,6660.95
609.390258789,6640.5
609.669433594,6618.125
609.948608398,6690.225
610.227722168,6651.3
610.506713867,6579.95
610.785888672,6610.475
611.064880371,6591.425
611.34387207,6613.05
611.622924805,6623.75
611.901916504,6598.725
612.180847168,6558.75
612.459777832,6571.55
612.738647461,6570.25
613.01751709,6533.7
613.296447754,6486.425
613.575317383,6458.05
613.854064941,6397.275
614.132873535,6291.325
614.411621094,6221.175
614.690368652,6162.825
614.969177246,6099.55
615.247802734,6021.825
615.526489258,5988.425
615.805175781,5866.7
616.08380127,5743.075
616.362365723,5644.45
616.640991211,5579.375
616.919555664,5529.25
617.198059082,5663.925
617.4765625,5987.8
617.755126953,6141.125
618.033569336,6156.45
618.311950684,6182.5
618.590454102,6175.75
618.868774414,6134.925
619.147155762,6170.75
619.425598145,6124.025
619.703857422,6153.15
619.982177734,6158.475
620.260498047,6129.55
620.538757324,6130.325
620.816955566,6084.2
621.095214844,6031.225
621.373413086,6029.1
621.651550293,6099.15
621.929748535,6124.0
622.207824707,6106.2
622.485900879,6138.775
622.764038086,6124.025
623.042053223,6162.275
623.320007324,6171.975
623.598083496,6178.775
623.876037598,6163.425
624.153991699,6205.825
624.432006836,6211.85
624.709838867,6229.325
624.987731934,6229.175
625.265563965,6212.75
625.543395996,6231.625
625.821228027,6293.975
626.098999023,6296.625
626.376831055,6351.275
626.654541016,6372.275
626.932250977,6403.825
627.209960938,6476.525
627.487670898,6475.475
627.765319824,6517.55
628.04296875,6484.025
628.320495605,6495.2
628.598083496,6512.975
628.875671387,6568.225
629.153259277,6606.725
629.430725098,6657.1
629.708251953,6646.05
629.985656738,6699.15
630.263122559,6737.2
630.540588379,6732.975
630.817932129,6769.3
631.095275879,6812.6
631.372680664,6858.6
631.649963379,6916.5
631.927246094,6945.35
632.204589844,6988.475
632.481811523,7065.45
632.759033203,7166.4
633.036254883,7157.65
633.313415527,7297.05
633.590576172,7348.65
633.867736816,7467.975
634.144836426,7540.65
634.421875,7581.775
634.698913574,7658.025
634.976013184,7707.35
635.252990723,7813.775
635.529968262,7844.325
635.807006836,7918.075
636.08392334,7888.075
636.360839844,7797.8
636.637756348,7673.975
636.914611816,7649.75
637.191467285,7644.7
637.468261719,7724.675
637.745056152,7677.15
638.021789551,7677.15
638.298583984,7743.075
638.575317383,7808.0
638.851989746,7799.1
639.12878418,7786.675
639.405395508,7752.95
639.682006836,7798.2
639.958618164,7799.375
640.235229492,7793.7
640.511779785,7847.875
640.788330078,7829.6
641.064880371,7849.35
641.341308594,7829.95
641.617797852,7826.95
641.894226074,7841.025
642.170654297,7816.85
642.44708252,7834.875
642.723388672,7758.95
642.999755859,7783.525
643.276123047,7792.55
643.552429199,7787.8
643.828674316,7801.9
644.104919434,7784.1
644.381164551,7751.25
644.657348633,7762.5
644.933532715,7745.75
645.209716797,7732.95
645.485839844,7741.15
645.761901855,7738.9
646.038024902,7739.25
646.314086914,7744.4
646.590087891,7744.375
646.866149902,7762.725
647.142150879,7730.3
647.41809082,7695.325
647.694030762,7722.15
647.969970703,7727.275
648.245788574,7736.85
648.521728516,7709.725
648.797546387,7689.725
649.073303223,7738.125
649.349182129,7693.675
649.624938965,7715.5
649.900634766,7721.275
650.176391602,7716.9
650.452087402,7685.1
650.727783203,7691.85
651.003479004,7700.9
651.279052734,7674.65
651.554626465,7666.25
651.83026123,7713.25
652.105773926,7734.35
652.381286621,7675.05
652.656860352,7691.475
652.932312012,7732.025
653.207763672,7721.65
653.483215332,7757.35
653.758605957,7729.425
654.033935547,7735.975
654.309326172,7709.425
654.584716797,7738.975
654.859985352,7726.15
655.135253906,7786.725
655.410583496,7816.05
655.685791016,8998.175
655.9609375,13880.2
656.236206055,13604.925
656.511291504,9083.2
656.786437988,8001.675
657.061645508,7867.05
657.336669922,7795.6
657.611694336,7843.15
657.886779785,7905.25
658.161804199,7914.5
658.436828613,7858.5
658.711791992,7870.775
658.986755371,7910.125
659.261657715,7903.6
659.536621094,7934.675
659.811401367,7945.25
660.086303711,7971.425
660.36114502,7978.375
660.635864258,7992.65
660.910644531,8041.925
661.185424805,8006.45
661.460205078,8049.475
661.734863281,8041.475
662.009521484,8056.575
662.284179688,8056.025
662.558776855,8093.075
662.833435059,8155.675
663.108032227,8140.025
663.382568359,8114.7
663.657043457,8170.075
663.93157959,8208.3
664.206054688,8181.6
664.48046875,8219.7
664.755004883,8221.025
665.02935791,8249.125
665.303710938,8260.5
665.578125,8314.15
665.852416992,8330.175
666.126708984,8315.625
666.401062012,8325.75
666.675292969,8399.95
666.949462891,8370.5
667.223754883,8389.225
667.497924805,8442.975
667.772094727,8459.55
668.046264648,8428.275
668.3203125,8524.85
668.594421387,8517.35
668.868469238,8534.85
669.14251709,8569.5
669.416503906,8588.375
669.690551758,8599.25
669.964477539,8603.125
670.23840332,8604.1
670.512329102,8617.925
670.786254883,8569.975
671.060058594,8656.225
671.333984375,8672.75
671.607788086,8700.025
671.881530762,8685.45
672.155334473,8737.525
672.429077148,8745.45
672.702758789,8761.725
672.97644043,8731.375
673.25012207,8762.075
673.523742676,8753.575
673.797302246,8769.55
674.070922852,8854.1
674.344482422,8820.125
674.618041992,8842.95
674.891601562,8835.475
675.165100098,8860.55
675.438476562,8891.375
675.711975098,8910.05
675.985412598,8911.125
676.258789062,8904.325
676.532165527,8943.725
676.805480957,8934.95
677.078796387,8955.225
677.352111816,8941.775
677.625366211,8995.25
677.898620605,8974.975
678.171875,9034.575
678.445007324,9041.275
678.718200684,9064.925
678.991394043,9050.2
679.264404297,9056.125
679.537536621,9109.8
679.81060791,9114.075
680.083679199,9107.775
680.356689453,9116.3
680.629699707,9148.1
680.902648926,9115.225
681.175598145,9149.325
681.448547363,9214.725
681.721435547,9192.325
681.99420166,9199.975
682.267150879,9192.7
682.539916992,9267.075
682.812744141,9254.775
683.085510254,9217.7
683.358215332,9247.05
683.63092041,9259.5
683.903625488,9290.7
684.176330566,9247.75
684.448913574,9233.375
684.721557617,9206.85
684.99420166,9299.625
685.266662598,9295.5
685.539245605,9309.475
685.811767578,9372.475
686.084289551,9354.5
686.356689453,9363.45
686.629150391,9401.675
686.901550293,9440.95
687.17401123,9455.175
687.446350098,9491.775
687.718688965,9478.0
687.990966797,9553.2
688.263305664,9534.825
688.535522461,9526.25
688.807739258,9513.85
689.079956055,9569.45
689.352172852,9593.425
689.624328613,9575.375
689.896484375,9627.05
690.168518066,9652.75
690.440612793,9687.325
690.71270752,9694.9
690.984741211,9699.875
691.256713867,9728.175
691.528747559,9714.725
691.800720215,9726.05
692.072631836,9744.65
692.344543457,9786.925
692.616394043,9811.2
692.888244629,9853.25
693.160095215,9858.575
693.431945801,9903.35
693.703674316,9893.05
693.975463867,9873.825
694.247131348,9925.7
694.518859863,9906.5
694.790588379,9988.5
695.062255859,9968.275
695.33380127,9943.025
695.60546875,9939.075
695.87701416,9981.85
696.148498535,9969.925
696.42010498,10004.55
696.691589355,10070.15
696.96307373,10042.625
697.234558105,10138.25
697.50592041,10136.025
697.777282715,10140.825
698.048706055,10154.625
698.320068359,10233.55
698.591308594,10189.3
698.862670898,10181.35
699.133972168,10239.7
699.405151367,10229.65
699.676391602,10289.3
699.947570801,10270.55
700.21875,10261.85
700.489868164,10281.5
700.761047363,10289.625
701.032104492,10396.725
701.303100586,10311.225
701.57421875,10397.425
701.845214844,10380.125
702.116149902,10399.7
702.387207031,10377.325
702.65814209,10434.85
702.928955078,10460.95
703.199951172,10408.6
703.47076416,10380.125
703.741577148,10375.75
704.012451172,10464.725
704.28314209,10465.625
704.553955078,10425.375
704.824707031,10483.575
705.095397949,10541.85
705.366027832,10486.65
705.63671875,10518.95
705.907348633,10464.65
706.17791748,10490.55
706.448486328,10524.95
706.719055176,10596.525
706.989562988,10604.025
707.260131836,10627.075
707.530517578,10644.2
707.800964355,10657.75
708.071411133,10626.025
708.341796875,10643.7
708.612182617,10600.075
708.882446289,10608.45
709.152893066,10625.575
709.423156738,10623.375
709.693359375,10626.55
709.963623047,10671.675
710.233825684,10725.65
710.503967285,10708.125
710.774169922,10695.85
711.044311523,10660.425
711.31439209,10669.925
711.584533691,10674.275
711.854553223,10693.65
712.124572754,10714.6
712.39465332,10680.95
712.664611816,10710.775
712.934509277,10793.375
713.204467773,10768.625
713.474365234,10790.325
713.74420166,10737.375
714.014099121,10783.85
714.283874512,10765.25
714.553710938,10807.825
714.823486328,10811.125
715.093200684,10768.825
715.362915039,10792.0
715.632629395,10794.05
715.902282715,10776.25
716.171875,10762.975
716.441589355,10795.375
716.711181641,10749.875
716.980712891,10787.175
717.250244141,10770.95
717.519775391,10806.325
717.78918457,10781.175
718.058654785,10834.475
718.328125,10851.075
718.597473145,10809.975
718.866882324,10829.225
719.136230469,10856.525
719.405578613,10915.5
719.674865723,10900.9
719.944152832,10871.725
720.213439941,10847.625
720.48260498,10912.1
720.75177002,10911.525
721.020996094,10907.875
721.290100098,10917.375
721.559204102,10866.225
721.828308105,10885.225
722.097351074,10925.675
722.366455078,10892.525
722.635437012,10896.875
722.904418945,10876.3
723.173400879,10892.225
723.442321777,10921.7
723.711181641,10892.85
723.980102539,10954.275
724.248962402,10942.35
724.51776123,10878.5
724.786560059,10888.25
725.055358887,10923.45
725.324035645,10904.425
725.592834473,10914.825
725.86151123,10926.55
726.130187988,10935.725
726.398803711,10906.4
726.667419434,10950.6
726.935974121,10907.75
727.204528809,10858.775
727.473083496,10853.75
727.741638184,10864.25
728.010070801,10811.95
728.278564453,10833.6
728.546936035,10819.5
728.815368652,10720.925
729.08380127,10667.9
729.352111816,10621.925
729.620361328,10519.85
729.88873291,10594.2
730.156982422,10647.95
730.425231934,10617.8
730.693481445,10622.725
730.961669922,10717.2
731.229797363,10768.925
731.49798584,10808.125
731.766113281,10881.7
732.034118652,10935.3
732.302246094,10969.125
732.570251465,11016.25
732.838256836,11095.225
733.106262207,11165.825
733.374145508,11192.0
733.642089844,11268.25
733.909973145,11305.675
734.177856445,11426.6
734.445678711,11478.65
734.713562012,11614.975
734.981323242,11575.65
735.249084473,11674.675
735.516845703,11824.125
735.784545898,11914.45
736.052185059,11996.875
736.319885254,12090.75
736.587524414,12152.725
736.855102539,12232.75
737.122619629,12387.125
737.390197754,12450.55
737.657714844,12566.2
737.925170898,12610.625
738.192749023,12767.7
738.460144043,12836.7
738.727539062,12873.225
738.994995117,13023.5
739.262329102,13117.5
739.529663086,13228.175
739.79699707,13247.1
740.06427002,13359.5
740.331481934,13477.15
740.598754883,13544.7
740.865905762,13533.75
741.133056641,13774.475
741.40032959,13741.4
741.667358398,13841.8
741.934448242,13881.7
742.201599121,13851.875
742.468566895,14002.025
742.735534668,14065.925
743.002563477,14112.325
743.26953125,14096.525
743.536437988,14143.8
743.803405762,14282.65
744.0703125,14274.9
744.337097168,14384.95
744.604003906,14267.7
744.870727539,14380.2
745.137512207,14417.1
745.40423584,14424.65
745.670959473,14401.45
745.93762207,14440.4
746.204284668,14482.925
746.470947266,14486.8
746.737548828,14440.85
747.004089355,14455.375
747.270751953,14478.65
747.53717041,14600.0
747.803710938,14473.675
748.070251465,14442.175
748.336608887,14461.625
748.603027344,14430.675
748.869445801,14420.5
749.135803223,14429.6
749.402099609,14412.975
749.668457031,14421.425
749.934753418,14385.575
750.20098877,14354.45
750.467224121,14443.05
750.733459473,14437.85
750.999572754,14393.4
751.26574707,14270.55
751.531860352,14356.45
751.797912598,14293.65
752.064025879,14192.375
752.330078125,14196.3
752.596069336,14187.95
752.862060547,14123.5
753.127990723,14165.55
753.393920898,14177.15
753.659912109,14073.45
753.925720215,14126.275
754.19152832,14040.975
754.457397461,14014.75
754.723144531,13983.425
754.988952637,13912.775
755.254699707,13976.6
755.520385742,14004.725
755.786071777,13951.525
756.051696777,13945.425
756.317382812,13866.425
756.582946777,13802.775
756.848510742,13823.7
757.114074707,13760.05
757.379577637,13743.35
757.645080566,13808.05
757.910583496,13761.375
758.175964355,13669.75
758.441345215,13638.8
758.706848145,13469.225
758.972106934,13504.0
759.237426758,13545.05
759.502807617,13565.75
759.768005371,13519.275
760.03326416,13462.075
760.298522949,13392.25
760.563659668,13448.6
760.828857422,13378.9
761.093994141,13420.4
761.359130859,13313.2
761.624206543,13324.8
761.889282227,13276.625
762.15423584,13263.6
762.419250488,13220.9
762.684265137,13161.375
762.949157715,13146.025
763.214050293,13136.425
763.479003906,13130.15
763.743835449,13095.875
764.008666992,13090.8
764.2734375,13099.15
764.538208008,13080.15
764.802978516,13109.15
765.067687988,13081.4
765.332397461,13077.125
765.597045898,13017.625
765.861694336,12957.725
766.126342773,12940.6
766.390930176,12902.575
766.655395508,12819.375
766.920043945,12801.0
767.184509277,12835.95
767.448974609,12842.05
767.713439941,12772.375
767.977783203,12744.7
768.2421875,12831.5
768.506591797,12732.0
768.770874023,12841.625
769.03515625,12772.475
769.299499512,12747.525
769.563720703,12704.65
769.827941895,12622.425
770.092163086,12604.65
770.356323242,12610.225
770.620483398,12637.6
770.88458252,12674.75
771.148681641,12658.275
771.412719727,12589.725
771.676757812,12632.775
771.940734863,12548.125
772.204711914,12545.25
772.468688965,12553.4
772.73260498,12539.4
772.996459961,12546.875
773.260314941,11187.675
773.524169922,1417.125
773.787963867,162.55
774.051696777,122.35
774.315551758,120.275
774.579223633,119.025
774.842895508,118.325
775.106567383,121.925
775.370239258,117.375
775.633789062,122.15
775.897399902,123.175
776.160949707,115.375
776.424499512,119.025
776.687988281,121.25
776.951477051,125.1
777.214904785,120.075
777.47833252,118.725
