191.299911499,101.475
191.603515625,105.075
191.907119751,96.925
192.210693359,104.8
192.514251709,97.3
192.817810059,105.225
193.121368408,101.35
193.42489624,106.8
193.728408813,100.5
194.031936646,99.825
194.33543396,93.75
194.638916016,113.0
194.94241333,95.7
195.245880127,98.825
195.549331665,96.9
195.852767944,99.1
196.156204224,113.975
196.459625244,107.925
196.763015747,109.625
197.066436768,114.375
197.369812012,104.225
197.673187256,111.15
197.9765625,103.75
198.279922485,108.225
198.583251953,101.175
198.886581421,108.975
199.18989563,114.025
199.493209839,112.0
199.79649353,103.9
200.09979248,113.75
200.403076172,107.575
200.706314087,111.225
201.009567261,112.05
201.312820435,116.0
201.616027832,106.975
201.919235229,102.775
202.222457886,107.4
202.525634766,111.35
202.828826904,103.25
203.132003784,101.075
203.435150146,107.225
203.738296509,107.1
204.041412354,105.7
204.344558716,110.575
204.647659302,113.625
204.950759888,110.95
205.253845215,114.575
205.556930542,108.425
205.859985352,111.25
206.163024902,108.675
206.466079712,107.925
206.769104004,112.475
207.072113037,105.875
207.375137329,108.125
207.678131104,108.15
207.981109619,106.825
208.284088135,103.7
208.587036133,107.575
208.889984131,106.75
209.19291687,109.475
209.495849609,110.975
209.798751831,108.875
210.101654053,109.375
210.404556274,109.5
210.707427979,104.575
211.010269165,113.9
211.31312561,109.425
211.615982056,110.05
211.918807983,109.65
212.221618652,106.2
212.524429321,101.3
212.827224731,111.05
213.130004883,107.5
213.432769775,106.975
213.735534668,103.85
214.038269043,108.85
214.341003418,106.825
214.643737793,107.8
214.946456909,109.125
215.249145508,108.875
215.551834106,106.775
215.854507446,106.275
216.157165527,103.3
216.45980835,105.575
216.762451172,108.45
217.065078735,108.275
217.36769104,105.05
217.670303345,107.175
217.972885132,109.675
218.275466919,107.625
218.578048706,101.5
218.880599976,109.675
219.183120728,103.85
219.485656738,103.6
219.788192749,101.0
220.090682983,105.925
220.393188477,108.2
220.695663452,115.45
220.998138428,115.15
221.300582886,126.1
221.603042603,112.175
221.905487061,118.35
222.207901001,120.525
222.510299683,127.4
222.812728882,131.625
223.115097046,139.4
223.41746521,145.125
223.719848633,145.675
224.022171021,146.425
224.324508667,148.275
224.626846313,161.3
224.929168701,166.775
225.231460571,173.825
225.533737183,166.6
225.836013794,174.525
226.138290405,180.1
226.440536499,177.525
226.742767334,188.725
227.044998169,188.4
227.347213745,192.1
227.649429321,195.275
227.951629639,196.3
228.253799438,195.125
228.555953979,205.35
228.858123779,203.875
229.160263062,210.575
229.462371826,202.275
229.764511108,208.775
230.066619873,204.575
230.36869812,215.3
230.670776367,209.125
230.972854614,208.95
231.274902344,211.175
231.576950073,216.9
231.878967285,204.65
232.180999756,215.2
232.48298645,221.7
232.784988403,216.975
233.086975098,224.025
233.388946533,227.55
233.69090271,223.75
233.992858887,228.375
234.294769287,222.35
234.596694946,227.4
234.898605347,230.675
235.200500488,227.225
235.502380371,229.525
235.804244995,224.2
236.106109619,225.275
236.407958984,230.35
236.709777832,222.05
237.011581421,231.125
237.313400269,217.3
237.615203857,231.175
237.916976929,231.525
238.21875,227.175
238.520507812,224.15
238.822250366,233.475
239.12399292,230.35
239.425704956,244.975
239.727401733,222.725
240.02911377,229.3
240.330780029,225.825
240.632446289,228.8
240.93409729,227.2
241.23576355,237.65
241.537384033,233.05
241.839004517,236.125
242.140594482,234.625
242.442199707,242.625
242.743774414,236.25
243.045333862,236.325
243.346923828,239.4
243.648452759,235.15
243.949966431,233.75
244.251495361,243.125
244.552993774,241.2
244.854492188,237.975
245.155975342,239.575
245.457443237,250.75
245.758880615,244.725
246.060333252,252.275
246.36177063,236.95
246.66317749,250.85
246.964569092,240.9
247.265945435,250.375
247.567337036,242.55
247.86869812,254.475
248.170059204,249.55
248.471389771,256.425
248.772705078,259.175
249.074035645,255.975
249.375335693,261.425
249.676620483,279.65
249.977890015,273.375
250.279159546,282.65
250.58039856,283.225
250.881637573,281.775
251.182876587,286.15
251.484069824,285.275
251.785263062,294.85
252.086456299,305.5
252.387619019,300.45
252.688781738,305.25
252.989929199,314.3
253.291061401,319.675
253.592178345,328.275
253.893280029,332.425
254.194366455,342.8
254.49546814,332.925
254.796524048,338.375
255.097579956,355.975
255.398620605,349.2
255.699645996,358.125
256.000640869,352.6
256.30166626,362.375
256.602661133,364.45
256.903656006,370.175
257.204589844,371.325
257.505523682,373.15
257.80645752,376.45
258.107391357,376.15
258.408294678,377.125
258.709228516,382.0
259.010070801,373.675
259.310943604,377.75
259.611846924,380.15
259.912658691,378.325
260.213500977,382.825
260.514343262,381.275
260.815124512,386.025
261.115936279,376.3
261.416717529,385.0
261.717468262,382.425
262.018218994,374.225
262.318969727,387.25
262.619689941,387.425
262.920410156,396.125
263.221130371,392.725
263.521789551,401.975
263.822479248,401.1
264.123138428,412.2
264.42376709,414.075
264.72442627,416.725
265.025054932,408.025
265.325622559,421.45
265.626251221,421.375
265.926818848,428.375
266.227386475,416.05
266.527954102,423.6
266.828460693,427.825
267.12902832,413.325
267.429534912,413.65
267.730010986,422.475
268.030517578,412.875
268.330993652,419.3
268.631439209,412.125
268.931915283,414.65
269.232299805,417.45
269.532745361,419.1
269.8331604,408.425
270.133544922,411.7
270.433929443,417.575
270.734313965,413.925
271.034637451,414.6
271.334991455,415.575
271.635314941,428.125
271.935638428,422.575
272.235931396,429.6
272.536254883,431.3
272.836486816,434.25
273.136749268,444.875
273.437011719,454.55
273.737213135,459.875
274.037445068,454.5
274.337677002,463.8
274.6378479,466.95
274.938049316,487.5
275.238220215,491.35
275.538360596,497.875
275.838500977,499.9
276.138641357,530.275
276.438751221,520.425
276.738830566,525.45
277.03894043,527.675
277.338989258,547.85
277.639038086,552.3
277.939056396,560.9
278.239105225,557.7
278.539093018,569.925
278.839141846,566.525
279.139129639,580.275
279.439086914,592.875
279.739044189,593.975
280.039001465,597.45
280.338928223,604.675
280.63885498,612.375
280.938781738,616.3
281.238647461,618.375
281.538513184,616.5
281.838409424,623.15
282.138244629,630.525
282.438079834,636.2
282.737945557,633.875
283.037719727,633.9
283.337524414,642.8
283.637298584,632.25
283.937072754,642.925
284.236816406,654.0
284.536560059,653.475
284.836303711,652.2
285.136016846,659.325
285.43572998,663.225
285.735412598,660.325
286.035064697,668.85
286.334747314,680.4
286.634368896,667.475
286.933990479,670.9
287.233642578,663.7
287.533203125,666.3
287.832824707,654.95
288.132385254,657.575
288.431945801,654.9
288.731506348,637.55
289.031036377,621.8
289.330566406,625.625
289.630065918,621.975
289.92956543,621.65
290.229034424,637.325
290.528503418,642.825
290.827941895,657.2
291.127380371,668.825
291.42678833,671.575
291.726226807,696.875
292.025604248,691.95
292.324981689,702.575
292.624359131,694.825
292.923736572,704.475
293.223052979,710.1
293.522369385,705.15
293.821685791,697.15
294.12097168,701.125
294.420257568,698.8
294.719543457,700.375
295.018768311,703.9
295.318023682,694.4
295.617248535,688.275
295.916442871,692.775
296.215667725,681.775
296.514862061,686.05
296.813995361,655.95
297.11315918,642.75
297.412322998,631.55
297.711425781,626.2
298.010559082,650.25
298.309631348,657.125
298.608734131,666.825
298.907806396,684.95
299.206848145,709.2
299.505889893,708.225
299.804901123,718.675
300.103912354,734.125
300.402954102,745.825
300.701904297,731.725
301.00088501,741.85
301.299835205,753.475
301.5987854,750.825
301.897735596,761.05
302.196624756,757.55
302.495513916,778.125
302.794403076,772.475
303.093292236,775.625
303.392120361,787.075
303.690979004,789.475
303.989837646,803.5
304.288604736,800.65
304.587402344,787.15
304.886199951,810.125
305.184967041,800.125
305.483734131,812.45
305.782501221,808.975
306.081176758,816.95
306.37991333,819.225
306.678619385,809.625
306.977294922,814.0
307.275970459,820.15
307.574645996,817.975
307.873260498,808.25
308.171875,818.9
308.470489502,826.25
308.769104004,816.075
309.067687988,800.7
309.366241455,810.825
309.664794922,819.625
309.963348389,814.3
310.261871338,811.7
310.560394287,813.875
310.858856201,808.425
311.157348633,813.275
311.455810547,817.025
311.754272461,805.575
312.052703857,825.3
312.351135254,818.25
312.649536133,824.375
312.947937012,819.725
313.246307373,825.25
313.544647217,829.5
313.843017578,814.875
314.141387939,813.2
314.439697266,832.75
314.738006592,814.45
315.036315918,817.325
315.334564209,806.375
315.6328125,793.15
315.931091309,788.275
316.229309082,789.15
316.527526855,768.8
316.825744629,776.125
317.123901367,769.65
317.422088623,765.575
317.720245361,762.625
318.0184021,761.3
318.316497803,767.35
318.614654541,765.175
318.912750244,781.225
319.21081543,765.25
319.50894165,770.425
319.806945801,776.0
320.104980469,763.675
320.403045654,776.45
320.701049805,772.95
320.999023438,762.15
321.297027588,772.325
321.595001221,765.725
321.892913818,760.625
322.190887451,755.2
322.488830566,754.55
322.786712646,755.375
323.084625244,743.2
323.382507324,736.75
323.680358887,740.85
323.978210449,730.675
324.276062012,720.05
324.573852539,722.4
324.871643066,715.175
325.169464111,711.9
325.467224121,703.875
325.764984131,698.4
326.062744141,683.2
326.360473633,691.525
326.658203125,684.825
326.955871582,678.275
327.253570557,662.7
327.551239014,666.225
327.848907471,664.425
328.146514893,660.325
328.444152832,647.525
328.741790771,645.825
329.039367676,642.025
329.336914062,634.25
329.634521484,627.65
329.932067871,628.45
330.229553223,615.875
330.527160645,616.525
330.824615479,609.5
331.12210083,606.3
331.419586182,599.9
331.717041016,595.15
332.014465332,591.125
332.311920166,596.375
332.609313965,579.9
332.906707764,585.1
333.204101562,570.625
333.501495361,579.075
333.798828125,581.525
334.096160889,585.65
334.39352417,594.1
334.690795898,593.175
334.988098145,592.35
335.285400391,610.0
335.582641602,601.2
335.879882812,611.425
336.177124023,607.375
336.474334717,614.075
336.77154541,618.975
337.068725586,613.625
337.365905762,617.3
337.66305542,616.025
337.960205078,624.975
338.257324219,620.4
338.554443359,610.475
338.8515625,623.025
339.148590088,624.6
339.445648193,628.775
339.742736816,611.05
340.039764404,618.125
340.336761475,618.825
340.63381958,615.825
340.930755615,605.075
341.227722168,606.55
341.524688721,588.45
341.821624756,601.0
342.118560791,590.825
342.415496826,598.325
342.712402344,607.075
343.009246826,629.175
343.306121826,632.0
343.602966309,640.45
343.899810791,639.775
344.196624756,653.6
344.493438721,657.8
344.79019165,660.5
345.086975098,658.65
345.383758545,666.3
345.680480957,667.85
345.977203369,662.4
346.273956299,662.475
346.570617676,664.075
346.86730957,665.85
347.163970947,662.575
347.460601807,678.5
347.757232666,666.375
348.053894043,666.525
348.350463867,672.275
348.647064209,663.325
348.943634033,668.425
349.24017334,660.525
349.536712646,656.95
349.833251953,661.825
350.129760742,660.225
350.426208496,654.95
350.722747803,668.5
351.019195557,653.95
351.315612793,649.875
351.612060547,645.35
351.908508301,640.6
352.204864502,642.8
352.501281738,640.5
352.797637939,631.825
353.093963623,624.125
353.390319824,614.5
353.686645508,606.8
353.982940674,610.975
354.27923584,603.075
354.575531006,592.5
354.871765137,598.825
355.167999268,597.75
355.464233398,599.5
355.760437012,603.65
356.056640625,597.825
356.352813721,600.8
356.648956299,593.35
356.945129395,595.0
357.241271973,609.875
357.537384033,604.025
357.833496094,592.825
358.129577637,587.4
358.425628662,591.9
358.721679688,579.675
359.017730713,592.4
359.313720703,581.375
359.609710693,584.725
359.905761719,583.7
360.201721191,575.875
360.497650146,563.95
360.793609619,569.875
361.089538574,574.35
361.385437012,551.95
361.681365967,548.925
361.977233887,552.65
362.273071289,552.525
362.568908691,537.675
362.864746094,519.7
363.160552979,517.6
363.456359863,499.425
363.752166748,496.875
364.047912598,476.625
364.343658447,487.575
364.639434814,487.125
364.935119629,483.175
365.230834961,495.65
365.526550293,496.2
365.822174072,491.175
366.117858887,501.15
366.413482666,503.4
366.709075928,514.1
367.004730225,486.225
367.300292969,490.625
367.595855713,500.325
367.891448975,487.25
368.186981201,470.85
368.482513428,480.85
368.778015137,490.675
369.073547363,473.6
369.36895752,469.2
369.664428711,465.525
369.95993042,460.1
370.255310059,452.875
370.550720215,456.725
370.846160889,455.8
371.14151001,437.35
371.436859131,446.35
371.73223877,442.425
372.027557373,442.075
372.322875977,433.85
372.618164062,431.45
372.913482666,430.2
373.208709717,433.825
373.503967285,420.625
373.799194336,422.575
374.094421387,417.525
374.389648438,415.975
374.684844971,419.675
374.979980469,423.675
375.275146484,428.725
375.570281982,417.8
375.865386963,430.55
376.160522461,425.8
376.455596924,417.7
376.750640869,428.625
377.045715332,429.95
377.340759277,436.95
377.635772705,437.575
377.93081665,435.625
378.225769043,446.475
378.520751953,453.375
378.815734863,444.35
379.110656738,466.725
379.405548096,472.875
379.700500488,458.725
379.995391846,441.925
380.290252686,451.525
380.585083008,453.0
380.879974365,461.55
381.17477417,447.45
381.469543457,451.1
381.764404297,443.9
382.059143066,452.225
382.353912354,455.825
382.648651123,464.375
382.943389893,460.8
383.238067627,445.075
383.532775879,449.95
383.827484131,439.65
384.12210083,445.65
384.416778564,446.275
384.711425781,426.225
385.006011963,431.65
385.300628662,426.425
385.595184326,437.25
385.88973999,446.3
386.184295654,455.975
386.478820801,453.6
386.77331543,467.2
387.067840576,469.075
387.362335205,475.725
387.656768799,494.075
387.951202393,504.75
388.245635986,496.6
388.540039062,507.175
388.834472656,506.175
389.128875732,513.725
389.423187256,481.325
389.717559814,480.5
390.011871338,484.775
390.306182861,489.85
390.600463867,496.475
390.894775391,505.625
391.189025879,502.525
391.48324585,500.95
391.777526855,505.85
392.071685791,525.975
392.365875244,529.45
392.660064697,535.65
392.95425415,566.0
393.248382568,564.0
393.542510986,514.8
393.836608887,509.775
394.130706787,511.225
394.424804688,508.525
394.71887207,508.525
395.012878418,506.75
395.306915283,500.825
395.600921631,494.775
395.894927979,491.5
396.188903809,499.725
396.482879639,495.4
396.776794434,515.025
397.070739746,513.675
397.364654541,517.7
397.658538818,538.925
397.952423096,553.125
398.246307373,548.675
398.540100098,596.95
398.833953857,577.35
399.127746582,541.2
399.421508789,533.375
399.715301514,532.9
400.009063721,528.95
400.30279541,516.075
400.596496582,503.975
400.890258789,526.775
401.183929443,531.0
401.47756958,516.325
401.771240234,497.9
402.064880371,508.4
402.35848999,501.35
402.652130127,502.95
402.945678711,503.325
403.239257812,502.275
403.532775879,490.0
403.82635498,496.65
404.119842529,488.1
404.413360596,485.25
404.706848145,494.775
405.000274658,492.625
405.293762207,493.525
405.587188721,503.975
405.880584717,482.625
406.17401123,471.05
406.467407227,453.75
406.760742188,456.5
407.054107666,456.425
407.347442627,451.375
407.640716553,444.875
407.934051514,457.05
408.227325439,459.975
408.520568848,474.3
408.813842773,481.625
409.107086182,469.25
409.400238037,467.025
409.693450928,464.375
409.986633301,463.7
410.279754639,468.625
410.572875977,431.125
410.86605835,427.3
411.159118652,427.375
411.452209473,429.475
411.745330811,419.225
412.038360596,416.1
412.331390381,420.55
412.624420166,429.375
412.917388916,412.425
413.210388184,405.925
413.503387451,400.275
413.796295166,386.175
414.089233398,385.375
414.382141113,374.625
414.675048828,364.05
414.967926025,376.475
415.260803223,358.625
415.55368042,365.625
415.846466064,363.975
416.139282227,370.05
416.432098389,387.6
416.724853516,377.15
417.017608643,374.6
417.31036377,384.55
417.603088379,386.55
417.895782471,388.3
418.188476562,385.025
418.481140137,391.775
418.773803711,397.125
419.066436768,389.25
419.359039307,396.525
419.651641846,402.975
419.944244385,398.4
420.236816406,392.65
420.529327393,404.35
420.821899414,420.7
421.114379883,409.575
421.406860352,432.95
421.699371338,448.6
421.991821289,447.825
422.284240723,429.75
422.576721191,422.125
422.869110107,402.425
423.161468506,408.625
423.453857422,410.95
423.74621582,398.0
424.038543701,391.05
424.330871582,382.3
424.623168945,374.675
424.915435791,391.425
425.207702637,390.075
425.499969482,383.725
425.792205811,382.4
426.084411621,348.85
426.376617432,365.2
426.668762207,366.825
426.9609375,360.025
427.253082275,366.3
427.545196533,397.025
427.837310791,381.9
428.129425049,350.1
428.421447754,372.85
428.713531494,361.85
429.005554199,375.325
429.297576904,366.65
429.589599609,414.475
429.881561279,435.175
430.173522949,417.875
430.465484619,409.775
430.757415771,425.3
431.049316406,399.575
431.341186523,377.625
431.633117676,370.225
431.924957275,344.95
432.21673584,335.925
432.508636475,357.475
432.800415039,347.975
433.092163086,351.275
433.383972168,345.125
433.675689697,403.1
433.967437744,442.65
434.259155273,352.425
434.550872803,341.9
434.842498779,340.275
435.134185791,355.15
435.425842285,355.475
435.717437744,351.0
436.009063721,333.325
436.30065918,346.35
436.592224121,377.925
436.883758545,357.95
437.175323486,332.425
437.466827393,332.8
437.758331299,334.6
438.049804688,328.175
438.341247559,339.175
438.63269043,353.75
438.924163818,346.25
439.215515137,347.825
439.50692749,334.6
439.798309326,335.65
440.089660645,337.925
440.380981445,334.125
440.672332764,335.95
440.963623047,352.65
441.254882812,392.475
441.546173096,404.375
441.837402344,388.125
442.128631592,359.275
442.41986084,372.725
442.711029053,354.625
443.002197266,367.425
443.293365479,382.175
443.584503174,391.975
443.875610352,396.125
444.166717529,362.3
444.457794189,380.4
444.748840332,378.775
445.039916992,373.95
445.330932617,376.275
445.621948242,362.55
445.912963867,352.4
446.203918457,377.0
446.494812012,396.0
446.785827637,376.175
447.076721191,356.45
447.367584229,360.025
447.658447266,363.9
447.949371338,364.375
448.24017334,359.775
448.530975342,350.9
448.821838379,367.55
449.112579346,373.95
449.40335083,371.2
449.694152832,363.55
449.984863281,369.75
450.27557373,365.85
450.56628418,378.575
450.856933594,374.075
451.147583008,359.1
451.438262939,356.0
451.728881836,379.525
452.019470215,382.325
452.310089111,360.15
452.600646973,364.875
452.891174316,369.85
453.181732178,355.925
453.472229004,344.05
453.762695312,349.925
454.053222656,356.425
454.343658447,353.425
454.634063721,339.8
454.924530029,359.2
455.214935303,368.425
455.505279541,365.325
455.795715332,362.5
456.086029053,335.95
456.376312256,346.45
456.666687012,343.15
456.956939697,345.825
457.247192383,355.525
457.537445068,352.9
457.827728271,362.875
458.117919922,369.7
458.408081055,347.375
458.698303223,370.2
458.988433838,366.35
459.278564453,353.025
459.568725586,366.425
459.858825684,374.575
460.148864746,352.875
460.438995361,353.95
460.729034424,352.475
461.019042969,355.575
461.309082031,366.225
461.599060059,360.9
461.889007568,320.675
462.179016113,303.5
462.468933105,327.675
462.75881958,335.125
463.048736572,310.15
463.338592529,333.875
463.628448486,356.325
463.918365479,341.55
464.2081604,349.45
464.497924805,345.925
464.787780762,357.225
465.077514648,383.475
465.367218018,343.55
465.657012939,369.9
465.946685791,390.775
466.236358643,367.625
466.526092529,321.8
466.815734863,315.675
467.105316162,317.05
467.394927979,318.55
467.684570312,300.675
467.974121094,314.625
468.263671875,319.6
468.553222656,303.575
468.842773438,296.675
469.132232666,291.25
469.42175293,291.6
469.711212158,291.7
470.000640869,276.2
470.290100098,283.35
470.579498291,281.575
470.868835449,285.85
471.158294678,284.475
471.447601318,280.075
471.736907959,285.325
472.026275635,292.975
472.315551758,280.0
472.604797363,289.725
472.894104004,292.9
473.183319092,312.85
473.47253418,301.575
473.761779785,297.85
474.05090332,303.45
474.340087891,297.175
474.629241943,292.45
474.918365479,299.75
475.207427979,321.6
475.496551514,322.9
475.785614014,297.225
476.074645996,288.525
476.363708496,295.6
476.652679443,315.3
476.941650391,290.675
477.230682373,282.0
477.519622803,277.775
477.808502197,294.4
478.097412109,310.825
478.386352539,312.45
478.675201416,285.625
478.964050293,276.0
479.25289917,298.225
479.541717529,298.2
479.830474854,286.1
480.11932373,315.9
480.408050537,322.85
480.696777344,291.95
480.985534668,287.65
481.274200439,289.35
481.562866211,307.375
481.851593018,318.75
482.140197754,309.725
482.428833008,295.075
482.717468262,285.5
483.006011963,285.575
483.294586182,295.6
483.5831604,299.9
483.871673584,287.775
484.16015625,300.575
484.448699951,312.125
484.7371521,319.875
485.02557373,306.875
485.314025879,297.475
485.602416992,399.475
485.890777588,1164.275
486.179199219,1052.9
486.467559814,359.225
486.755859375,289.25
487.044219971,321.65
487.332519531,335.95
487.620758057,306.4
487.908966064,283.025
488.197265625,273.3
488.485473633,253.725
488.773651123,265.9
489.061859131,258.7
489.350006104,258.4
489.638122559,250.375
489.926300049,257.0
490.214355469,258.55
490.502441406,258.775
490.790527344,241.025
491.078552246,264.1
491.366546631,263.25
491.654602051,242.55
491.942565918,251.85
492.230499268,246.75
492.518493652,244.075
492.806396484,253.15
493.094268799,246.025
493.382202148,245.3
493.670074463,252.475
493.957885742,243.45
494.245727539,239.925
494.533508301,254.3
494.821289062,238.125
495.109100342,236.525
495.396850586,230.4
495.684539795,231.925
495.972290039,237.025
496.25994873,267.55
496.547607422,264.65
496.835296631,255.7
497.122894287,227.975
497.410522461,227.75
497.6980896,228.775
497.985687256,223.375
498.273223877,224.1
498.560760498,238.75
498.848266602,233.375
499.135772705,232.95
499.423217773,243.075
499.710693359,244.375
499.998138428,235.325
500.285522461,229.375
500.572937012,225.025
500.860290527,228.975
501.147644043,235.725
501.434997559,253.3
501.722290039,244.85
502.00958252,223.3
502.296875,240.7
502.584106445,241.5
502.871337891,226.125
503.158599854,240.825
503.445770264,244.975
503.732910156,239.2
504.020141602,228.875
504.307220459,232.05
504.594329834,229.45
504.881469727,219.375
505.168518066,226.8
505.455535889,231.35
505.742614746,231.825
506.029632568,227.3
506.316589355,231.625
506.603637695,247.4
506.890563965,231.3
507.177459717,210.2
507.464385986,204.65
507.751312256,224.225
508.038146973,227.975
508.325012207,221.325
508.611877441,225.2
508.898681641,227.7
509.185424805,214.825
509.472259521,211.175
509.759002686,211.525
510.045715332,226.425
510.332458496,220.0
510.619140625,223.525
510.905761719,209.7
511.192504883,211.1
511.479095459,213.95
511.765686035,212.8
512.052307129,206.55
512.338928223,208.45
512.625427246,205.475
512.91204834,214.025
513.198486328,201.3
513.484985352,211.925
513.77142334,208.1
514.057922363,209.375
514.344299316,205.075
514.63079834,200.025
514.917175293,202.275
515.203552246,201.275
515.489868164,191.9
515.776245117,208.075
516.0625,203.125
516.348815918,196.0
516.635070801,197.925
516.921325684,205.75
517.207580566,193.125
517.493774414,191.3
517.779968262,201.675
518.066101074,195.85
518.352294922,192.05
518.638366699,193.2
518.924499512,202.575
519.210632324,202.025
519.496643066,202.25
519.782714844,193.8
520.068786621,193.075
520.354736328,189.975
520.640686035,184.95
520.926757812,184.625
521.212646484,195.75
521.498535156,196.45
521.784484863,188.225
522.0703125,181.95
522.356262207,183.0
522.642089844,195.15
522.927856445,187.45
523.213684082,191.525
523.499511719,192.525
523.78527832,194.425
524.070983887,192.025
524.356750488,194.625
524.64239502,191.55
524.928039551,190.475
525.213806152,195.875
525.499389648,198.375
525.784973145,192.6
526.070617676,189.175
526.356140137,194.0
526.641723633,192.025
526.927307129,204.6
527.212768555,198.8
527.498291016,198.225
527.783752441,196.5
528.069213867,191.75
528.354675293,198.3
528.640014648,210.2
528.925476074,210.525
529.21081543,207.3
529.496154785,198.575
529.781555176,199.575
530.066833496,206.125
530.352050781,207.25
530.637390137,204.6
530.922607422,205.175
531.207824707,212.0
531.493041992,200.2
531.778198242,213.625
532.063354492,201.625
532.348571777,203.6
532.633666992,203.175
532.918762207,211.475
533.203857422,212.325
533.488891602,216.65
533.773925781,219.65
534.059020996,206.25
534.343933105,214.15
534.628967285,207.375
534.91394043,215.9
535.198852539,213.775
535.483703613,214.45
535.768676758,206.125
536.053527832,223.6
536.338317871,204.875
536.62322998,204.075
536.90802002,197.775
537.192810059,198.8
537.477539062,211.3
537.762329102,204.7
538.047058105,214.65
538.331726074,210.825
538.616455078,217.4
538.901123047,211.1
539.18572998,215.4
539.470397949,218.475
539.755004883,219.625
540.039550781,215.375
540.32409668,213.425
540.608703613,205.05
540.893188477,217.325
541.17767334,222.1
541.462158203,224.625
541.746643066,222.075
542.031066895,221.875
542.315429688,220.925
542.59979248,224.925
542.884216309,221.45
543.168579102,223.175
543.452941895,223.075
543.737243652,227.975
544.021484375,228.375
544.305725098,225.2
544.590026855,221.675
544.874267578,222.8
545.158447266,238.1
545.442626953,232.825
545.726806641,221.325
546.010925293,226.425
546.29510498,225.675
546.579162598,219.8
546.863220215,226.125
547.147277832,230.6
547.431335449,231.825
547.715332031,243.825
547.999328613,243.4
548.283325195,250.325
548.567260742,240.2
548.851135254,236.95
549.135070801,233.025
549.419006348,232.8
549.702819824,223.85
549.986755371,239.825
550.270507812,232.45
550.554321289,242.575
550.83807373,240.7
551.121826172,239.825
551.405517578,244.2
551.689331055,246.15
551.973022461,262.375
552.256652832,267.025
552.540344238,265.35
552.823974609,261.275
553.107543945,257.2
553.391174316,259.975
553.674743652,264.175
553.958251953,262.85
554.241821289,264.95
554.525268555,261.6
554.808776855,260.725
555.092285156,279.7
555.375671387,281.0
555.659057617,281.1
555.942504883,282.6
556.225891113,280.7
556.509216309,282.65
556.792541504,279.375
557.075866699,275.075
557.359130859,289.225
557.64239502,273.875
557.92565918,293.05
558.208862305,292.7
558.49206543,282.075
558.77532959,287.15
559.058410645,286.95
559.341552734,280.725
559.624694824,297.525
559.907775879,294.5
560.190856934,305.5
560.473937988,305.025
560.756896973,306.825
561.039978027,311.025
561.322937012,308.5
561.605895996,304.35
561.88885498,304.475
562.171813965,299.9
562.454650879,310.2
562.737548828,297.0
563.020446777,306.275
563.303283691,318.175
563.58605957,309.925
563.868896484,313.85
564.151672363,320.375
564.434387207,313.775
564.717163086,316.7
564.99987793,317.5
565.282531738,325.2
565.565185547,323.4
565.847839355,319.075
566.130432129,322.95
566.413085938,318.725
566.695678711,329.4
566.978149414,335.125
567.260681152,337.625
567.543273926,355.825
567.825744629,337.275
568.108154297,343.2
568.390686035,345.55
568.673095703,355.75
568.955505371,360.225
569.237854004,369.025
569.520202637,380.325
569.802490234,409.675
570.084838867,394.475
570.367126465,382.8
570.649414062,390.25
570.93170166,411.5
571.213928223,416.925
571.496154785,395.875
571.778381348,414.35
572.06048584,427.375
572.342590332,396.4
572.624755859,375.825
572.906860352,386.275
573.188903809,425.775
573.470947266,443.45
573.752990723,424.975
574.03503418,422.0
574.317016602,460.075
574.598937988,439.525
574.88092041,433.725
575.162841797,442.375
575.444763184,422.175
575.726623535,406.825
576.008483887,412.35
576.290344238,444.05
576.572143555,455.525
576.853881836,451.225
577.135681152,449.525
577.417419434,450.225
577.699157715,504.675
577.980895996,526.2
578.262573242,478.5
578.544128418,455.625
578.825866699,449.775
579.107421875,423.0
579.388977051,433.825
579.670593262,466.075
579.952148438,455.65
580.233642578,458.975
580.515197754,460.975
580.796691895,448.2
581.078125,449.125
581.359619141,558.2
581.640991211,563.45
581.922363281,491.4
582.203796387,504.525
582.485107422,472.625
582.766418457,445.9
583.047790527,447.325
583.329040527,441.175
583.610290527,427.3
583.891540527,436.65
584.172790527,460.025
584.453918457,466.225
584.735107422,463.65
585.016235352,492.725
585.297363281,492.6
585.578552246,475.45
585.859619141,472.85
586.140625,459.3
586.421630859,451.25
586.702697754,454.65
586.983642578,465.6
587.264648438,481.15
587.545654297,481.225
587.826477051,474.05
588.107421875,456.075
588.388305664,462.525
588.669189453,467.375
588.950012207,459.65
589.230834961,439.7
589.511657715,462.05
589.792358398,458.65
590.073120117,456.675
590.353881836,466.2
590.63458252,466.725
590.915283203,458.65
591.195922852,464.95
591.4765625,468.525
591.757202148,468.05
592.037780762,461.425
592.31829834,469.85
592.598937988,488.15
592.879394531,492.9
593.159912109,496.2
593.440429688,488.0
593.720825195,479.825
594.001281738,484.0
594.281677246,473.825
594.562072754,485.7
594.842407227,487.875
595.122802734,483.925
595.403137207,498.375
595.683410645,490.375
595.963623047,491.3
596.243896484,495.125
596.524169922,481.85
596.804382324,489.975
597.084533691,488.875
597.364746094,493.6
597.644836426,495.95
597.924987793,484.95
598.205078125,491.075
598.485107422,481.925
598.765197754,494.0
599.045227051,500.775
599.325195312,509.55
599.605224609,500.55
599.885192871,509.425
600.165100098,505.35
600.445007324,501.175
600.724914551,511.175
601.004760742,505.875
601.284667969,505.4
601.56451416,501.775
601.844238281,504.55
602.124084473,501.975
602.403808594,501.1
602.683532715,513.075
602.963256836,506.275
603.242919922,512.35
603.522583008,519.8
603.802246094,512.675
604.081848145,519.125
604.36138916,510.625
604.641052246,517.675
604.920532227,517.75
605.200073242,524.25
605.479614258,519.025
605.759094238,526.65
606.038574219,516.75
606.317932129,511.95
606.597412109,516.875
606.87677002,519.6
607.15612793,529.525
607.435546875,516.725
607.714782715,522.5
607.99407959,513.325
608.273376465,515.875
608.552612305,520.425
608.831848145,525.775
609.111083984,524.45
609.390258789,520.7
609.669433594,523.225
609.948608398,534.45
610.227722168,521.125
610.506713867,518.325
610.785888672,527.95
611.064880371,522.925
611.34387207,528.625
611.622924805,531.85
611.901916504,526.6
612.180847168,522.65
612.459777832,525.125
612.738647461,523.725
613.01751709,524.8
613.296447754,516.225
613.575317383,528.75
613.854064941,511.0
614.132873535,505.25
614.411621094,498.7
614.690368652,502.825
614.969177246,499.95
615.247802734,483.125
615.526489258,492.375
615.805175781,480.15
616.08380127,470.4
616.362365723,466.375
616.640991211,460.55
616.919555664,452.3
617.198059082,468.85
617.4765625,485.9
617.755126953,498.75
618.033569336,498.375
618.311950684,493.025
618.590454102,506.875
618.868774414,497.525
619.147155762,494.4
619.425598145,501.2
619.703857422,502.675
619.982177734,499.5
620.260498047,509.575
620.538757324,501.1
620.816955566,497.975
621.095214844,486.6
621.373413086,491.275
621.651550293,496.3
621.929748535,500.8
622.207824707,498.825
622.485900879,499.05
622.764038086,496.9
623.042053223,504.35
623.320007324,499.225
623.598083496,509.15
623.876037598,501.4
624.153991699,506.875
624.432006836,508.825
624.709838867,506.875
624.987731934,508.65
625.265563965,504.425
625.543395996,505.175
625.821228027,516.3
626.098999023,507.45
626.376831055,511.675
626.654541016,511.425
626.932250977,511.925
627.209960938,520.775
627.487670898,521.225
627.765319824,522.075
628.04296875,518.0
628.320495605,518.75
628.598083496,520.75
628.875671387,527.5
629.153259277,527.125
629.430725098,535.225
629.708251953,527.9
629.985656738,529.05
630.263122559,533.35
630.540588379,531.825
630.817932129,531.925
631.095275879,535.225
631.372680664,527.45
631.649963379,545.85
631.927246094,547.65
632.204589844,548.575
632.481811523,551.55
632.759033203,565.875
633.036254883,558.025
633.313415527,569.45
633.590576172,566.7
633.867736816,575.8
634.144836426,587.825
634.421875,588.425
634.698913574,603.175
634.976013184,610.9
635.252990723,617.375
635.529968262,612.375
635.807006836,622.3
636.08392334,614.875
636.360839844,604.225
636.637756348,596.225
636.914611816,586.575
637.191467285,585.475
637.468261719,606.775
637.745056152,591.175
638.021789551,592.875
638.298583984,597.025
638.575317383,605.4
638.851989746,600.075
639.12878418,608.35
639.405395508,593.7
639.682006836,612.975
639.958618164,602.675
640.235229492,600.275
640.511779785,603.025
640.788330078,601.025
641.064880371,597.825
641.341308594,592.35
641.617797852,596.65
641.894226074,591.8
642.170654297,590.35
642.44708252,597.05
642.723388672,594.425
642.999755859,596.0
643.276123047,602.25
643.552429199,587.25
643.828674316,593.65
644.104919434,600.1
644.381164551,593.7
644.657348633,598.475
644.933532715,590.15
645.209716797,589.025
645.485839844,583.75
645.761901855,582.15
646.038024902,580.175
646.314086914,591.575
646.590087891,586.65
646.866149902,586.0
647.142150879,576.75
647.41809082,587.925
647.694030762,584.775
647.969970703,579.025
648.245788574,584.25
648.521728516,584.95
648.797546387,581.625
649.073303223,585.45
649.349182129,580.0
649.624938965,582.525
649.900634766,578.65
650.176391602,577.3
650.452087402,576.05
650.727783203,577.725
651.003479004,572.5
651.279052734,576.475
651.554626465,567.925
651.83026123,573.4
652.105773926,571.4
652.381286621,564.975
652.656860352,567.7
652.932312012,582.325
653.207763672,580.875
653.483215332,578.775
653.758605957,580.475
654.033935547,578.675
654.309326172,579.275
654.584716797,581.575
654.859985352,567.2
655.135253906,568.35
655.410583496,566.3
655.685791016,638.35
655.9609375,940.05
656.236206055,932.35
656.511291504,651.825
656.786437988,583.975
657.061645508,561.05
657.336669922,563.125
657.611694336,575.15
657.886779785,569.9
658.161804199,578.475
658.436828613,565.95
658.711791992,571.55
658.986755371,574.925
659.261657715,566.15
659.536621094,572.375
659.811401367,572.85
660.086303711,574.7
660.36114502,568.7
660.635864258,559.25
660.910644531,567.325
661.185424805,570.175
661.460205078,571.825
661.734863281,578.9
662.009521484,565.1
662.284179688,563.05
662.558776855,571.875
662.833435059,579.725
663.108032227,575.5
663.382568359,579.6
663.657043457,575.975
663.93157959,584.05
664.206054688,575.9
664.48046875,585.4
664.755004883,578.1
665.02935791,583.65
665.303710938,570.55
665.578125,581.675
665.852416992,577.875
666.126708984,582.9
666.401062012,576.825
666.675292969,577.95
666.949462891,581.525
667.223754883,577.525
667.497924805,575.975
667.772094727,580.175
668.046264648,575.475
668.3203125,582.225
668.594421387,577.775
668.868469238,587.525
669.14251709,576.5
669.416503906,590.075
669.690551758,587.6
669.964477539,586.9
670.23840332,587.2
670.512329102,580.425
670.786254883,573.25
671.060058594,587.6
671.333984375,584.55
671.607788086,577.475
671.881530762,588.725
672.155334473,581.7
672.429077148,586.5
672.702758789,586.075
672.97644043,573.625
673.25012207,585.05
673.523742676,578.325
673.797302246,581.2
674.070922852,592.35
674.344482422,587.35
674.618041992,587.8
674.891601562,581.2
675.165100098,585.075
675.438476562,585.35
675.711975098,586.525
675.985412598,578.75
676.258789062,567.575
676.532165527,581.125
676.805480957,576.0
677.078796387,578.2
677.352111816,583.875
677.625366211,570.775
677.898620605,576.625
678.171875,587.7
678.445007324,577.725
678.718200684,576.55
678.991394043,593.375
679.264404297,578.6
679.537536621,583.35
679.81060791,578.575
680.083679199,579.55
680.356689453,584.375
680.629699707,584.2
680.902648926,574.35
681.175598145,581.525
681.448547363,586.5
681.721435547,580.625
681.99420166,574.975
682.267150879,568.625
682.539916992,583.65
682.812744141,582.2
683.085510254,570.875
683.358215332,572.55
683.63092041,570.875
683.903625488,579.525
684.176330566,576.075
684.448913574,572.4
684.721557617,572.675
684.99420166,585.425
685.266662598,578.425
685.539245605,578.9
685.811767578,584.35
686.084289551,581.9
686.356689453,573.425
686.629150391,579.475
686.901550293,577.1
687.17401123,570.15
687.446350098,580.9
687.718688965,574.725
687.990966797,584.15
688.263305664,581.475
688.535522461,576.025
688.807739258,577.775
689.079956055,581.0
689.352172852,583.65
689.624328613,580.875
689.896484375,575.2
690.168518066,583.475
690.440612793,574.725
690.71270752,577.3
690.984741211,588.45
691.256713867,579.225
691.528747559,578.975
691.800720215,576.325
692.072631836,575.175
692.344543457,580.375
692.616394043,580.125
692.888244629,574.05
693.160095215,577.325
693.431945801,579.775
693.703674316,584.425
693.975463867,571.3
694.247131348,583.575
694.518859863,583.35
694.790588379,587.225
695.062255859,583.775
695.33380127,579.975
695.60546875,595.65
695.87701416,578.05
696.148498535,583.875
696.42010498,586.55
696.691589355,588.9
696.96307373,585.725
697.234558105,588.0
697.50592041,585.775
697.777282715,581.775
698.048706055,577.3
698.320068359,584.1
698.591308594,589.05
698.862670898,584.325
699.133972168,585.5
699.405151367,584.4
699.676391602,591.775
699.947570801,587.775
700.21875,581.3
700.489868164,583.525
700.761047363,587.275
701.032104492,596.4
701.303100586,581.225
701.57421875,591.725
701.845214844,580.325
702.116149902,589.9
702.387207031,583.35
702.65814209,583.3
702.928955078,579.2
703.199951172,581.7
703.47076416,579.275
703.741577148,578.1
704.012451172,582.65
704.28314209,580.025
704.553955078,575.175
704.824707031,582.175
705.095397949,584.1
705.366027832,586.65
705.63671875,584.45
705.907348633,573.775
706.17791748,577.9
706.448486328,585.95
706.719055176,582.7
706.989562988,582.65
707.260131836,584.0
707.530517578,580.55
707.800964355,581.375
708.071411133,581.975
708.341796875,577.175
708.612182617,576.725
708.882446289,579.3
709.152893066,580.85
709.423156738,571.725
709.693359375,574.0
709.963623047,579.2
710.233825684,576.25
710.503967285,581.175
710.774169922,578.975
711.044311523,577.125
711.31439209,574.575
711.584533691,588.425
711.854553223,577.025
712.124572754,578.7
712.39465332,568.65
712.664611816,577.475
712.934509277,577.15
713.204467773,574.15
713.474365234,584.8
713.74420166,579.025
714.014099121,570.375
714.283874512,577.075
714.553710938,580.35
714.823486328,575.325
715.093200684,569.375
715.362915039,571.4
715.632629395,567.65
715.902282715,566.8
716.171875,567.525
716.441589355,567.075
716.711181641,568.175
716.980712891,576.125
717.250244141,566.6
717.519775391,572.95
717.78918457,575.7
718.058654785,569.325
718.328125,578.425
718.597473145,577.75
718.866882324,573.3
719.136230469,581.0
719.405578613,580.525
719.674865723,578.225
719.944152832,578.125
720.213439941,568.675
720.48260498,566.275
720.75177002,568.6
721.020996094,572.0
721.290100098,574.05
721.559204102,574.225
721.828308105,573.425
722.097351074,569.825
722.366455078,574.925
722.635437012,579.775
722.904418945,570.65
723.173400879,578.875
723.442321777,568.325
723.711181641,571.575
723.980102539,572.875
724.248962402,574.825
724.51776123,560.5
724.786560059,574.325
725.055358887,571.575
725.324035645,569.625
725.592834473,565.625
725.86151123,569.975
726.130187988,573.85
726.398803711,565.8
726.667419434,570.175
726.935974121,561.375
727.204528809,561.325
727.473083496,559.975
727.741638184,554.325
728.010070801,563.825
728.278564453,559.65
728.546936035,559.35
728.815368652,553.525
729.08380127,543.6
729.352111816,562.85
729.620361328,556.625
729.88873291,551.1
730.156982422,563.65
730.425231934,560.125
730.693481445,556.6
730.961669922,566.2
731.229797363,557.075
731.49798584,563.35
731.766113281,571.75
732.034118652,563.125
732.302246094,578.425
732.570251465,570.2
732.838256836,565.275
733.106262207,577.475
733.374145508,580.95
733.642089844,589.3
733.909973145,589.85
734.177856445,585.475
734.445678711,599.275
734.713562012,599.25
734.981323242,596.15
735.249084473,594.15
735.516845703,612.45
735.784545898,611.25
736.052185059,618.6
736.319885254,617.05
736.587524414,627.15
736.855102539,628.9
737.122619629,640.1
737.390197754,635.1
737.657714844,638.45
737.925170898,641.8
738.192749023,646.575
738.460144043,654.25
738.727539062,654.8
738.994995117,652.05
739.262329102,661.7
739.529663086,666.725
739.79699707,661.475
740.06427002,664.875
740.331481934,682.975
740.598754883,681.95
740.865905762,672.825
741.133056641,691.325
741.40032959,687.35
741.667358398,691.55
741.934448242,702.15
742.201599121,709.7
742.468566895,710.75
742.735534668,711.85
743.002563477,709.5
743.26953125,706.45
743.536437988,711.95
743.803405762,729.0
744.0703125,730.825
744.337097168,728.85
744.604003906,727.65
744.870727539,733.275
745.137512207,734.35
745.40423584,737.175
745.670959473,741.125
745.93762207,739.775
746.204284668,739.9
746.470947266,729.175
746.737548828,725.6
747.004089355,731.25
747.270751953,736.55
747.53717041,745.225
747.803710938,740.075
748.070251465,748.25
748.336608887,755.45
748.603027344,738.7
748.869445801,742.25
749.135803223,740.2
749.402099609,748.5
749.668457031,745.05
749.934753418,743.675
750.20098877,736.4
750.467224121,746.65
750.733459473,742.25
750.999572754,741.6
751.26574707,729.475
751.531860352,740.1
751.797912598,730.725
752.064025879,734.025
752.330078125,731.3
752.596069336,726.725
752.862060547,726.05
753.127990723,729.525
753.393920898,721.225
753.659912109,722.725
753.925720215,738.85
754.19152832,729.775
754.457397461,731.875
754.723144531,722.5
754.988952637,720.05
755.254699707,725.25
755.520385742,738.35
755.786071777,723.075
756.051696777,740.05
756.317382812,724.3
756.582946777,721.575
756.848510742,724.6
757.114074707,716.625
757.379577637,723.95
757.645080566,719.275
757.910583496,715.8
758.175964355,719.65
758.441345215,709.25
758.706848145,705.125
758.972106934,704.325
759.237426758,708.7
759.502807617,716.375
759.768005371,711.225
760.03326416,705.0
760.298522949,709.6
760.563659668,714.7
760.828857422,713.525
761.093994141,715.575
761.359130859,709.55
761.624206543,710.075
761.889282227,698.4
762.15423584,709.55
762.419250488,706.2
762.684265137,709.2
762.949157715,702.575
763.214050293,704.975
763.479003906,710.375
763.743835449,698.675
764.008666992,693.45
764.2734375,712.625
764.538208008,693.925
764.802978516,699.125
765.067687988,697.2
765.332397461,703.0
765.597045898,700.4
765.861694336,695.1
766.126342773,686.175
766.390930176,693.375
766.655395508,684.625
766.920043945,699.675
767.184509277,684.05
767.448974609,700.7
767.713439941,691.775
767.977783203,686.8
768.2421875,689.175
768.506591797,695.75
768.770874023,708.475
769.03515625,700.625
769.299499512,691.275
769.563720703,699.8
769.827941895,693.225
770.092163086,696.35
770.356323242,696.2
770.620483398,696.375
770.88458252,705.375
771.148681641,705.125
771.412719727,698.075
771.676757812,703.05
771.940734863,698.675
772.204711914,690.325
772.468688965,688.325
772.73260498,694.4
772.996459961,692.075
773.260314941,630.475
773.524169922,183.55
773.787963867,124.5
774.051696777,119.275
774.315551758,121.775
774.579223633,124.825
774.842895508,122.35
775.106567383,124.125
775.370239258,119.225
775.633789062,124.85
775.897399902,126.675
776.160949707,119.4
776.424499512,122.25
776.687988281,124.525
776.951477051,127.175
777.214904785,122.5
777.47833252,123.375
