191.299911499,99.675
191.603515625,102.75
191.907119751,98.225
192.210693359,106.425
192.514251709,99.2
192.817810059,104.575
193.121368408,101.175
193.42489624,105.75
193.728408813,101.675
194.031936646,100.15
194.33543396,94.075
194.638916016,113.8
194.94241333,94.85
195.245880127,95.925
195.549331665,97.3
195.852767944,102.675
196.156204224,224.0
196.459625244,213.225
196.763015747,218.375
197.066436768,221.85
197.369812012,219.8
197.673187256,220.525
197.9765625,213.85
198.279922485,217.2
198.583251953,214.1
198.886581421,215.6
199.18989563,225.5
199.493209839,219.1
199.79649353,212.15
200.09979248,228.55
200.403076172,225.45
200.706314087,224.325
201.009567261,217.975
201.312820435,216.875
201.616027832,208.6
201.919235229,204.85
202.222457886,209.35
202.525634766,211.875
202.828826904,208.425
203.132003784,199.825
203.435150146,208.65
203.738296509,207.8
204.041412354,206.975
204.344558716,213.3
204.647659302,210.9
204.950759888,212.8
205.253845215,208.975
205.556930542,206.35
205.859985352,206.5
206.163024902,208.0
206.466079712,211.65
206.769104004,227.45
207.072113037,216.4
207.375137329,212.925
207.678131104,212.675
207.981109619,216.625
208.284088135,209.725
208.587036133,219.375
208.889984131,219.675
209.19291687,222.275
209.495849609,221.725
209.798751831,223.725
210.101654053,221.475
210.404556274,225.675
210.707427979,220.5
211.010269165,225.55
211.31312561,230.15
211.615982056,226.525
211.918807983,228.425
212.221618652,225.95
212.524429321,223.25
212.827224731,237.775
213.130004883,231.75
213.432769775,231.8
213.735534668,237.75
214.038269043,242.175
214.341003418,239.525
214.643737793,246.825
214.946456909,245.85
215.249145508,251.5
215.551834106,248.25
215.854507446,253.0
216.157165527,250.1
216.45980835,258.2
216.762451172,260.8
217.065078735,268.5
217.36769104,258.625
217.670303345,268.325
217.972885132,271.325
218.275466919,275.125
218.578048706,267.425
218.880599976,280.0
219.183120728,283.425
219.485656738,289.9
219.788192749,305.2
220.090682983,326.5
220.393188477,351.375
220.695663452,389.725
220.998138428,425.225
221.300582886,475.775
221.603042603,530.475
221.905487061,604.275
222.207901001,679.925
222.510299683,772.6
222.812728882,884.45
223.115097046,986.75
223.41746521,1118.25
223.719848633,1249.4
224.022171021,1380.075
224.324508667,1550.175
224.626846313,1697.525
224.929168701,1851.3
225.231460571,2017.25
225.533737183,2184.575
225.836013794,2358.75
226.138290405,2517.275
226.440536499,2701.6
226.742767334,2849.875
227.044998169,3005.025
227.347213745,3180.175
227.649429321,3321.975
227.951629639,3446.15
228.253799438,3581.75
228.555953979,3719.1
228.858123779,3828.35
229.160263062,3931.375
229.462371826,4061.125
229.764511108,4179.525
230.066619873,4265.2
230.36869812,4361.65
230.670776367,4493.925
230.972854614,4628.025
231.274902344,4710.925
231.576950073,4847.425
231.878967285,4934.425
232.180999756,5106.2
232.48298645,5179.45
232.784988403,5311.575
233.086975098,5426.025
233.388946533,5526.275
233.69090271,5664.25
233.992858887,5803.775
234.294769287,5864.85
234.596694946,5985.225
234.898605347,6066.825
235.200500488,6157.625
235.502380371,6248.9
235.804244995,6327.925
236.106109619,6333.725
236.407958984,6428.125
236.709777832,6508.825
237.011581421,6549.525
237.313400269,6581.85
237.615203857,6629.825
237.916976929,6692.225
238.21875,6728.4
238.520507812,6790.6
238.822250366,6833.875
239.12399292,6878.225
239.425704956,6953.35
239.727401733,6916.525
240.02911377,6982.425
240.330780029,6996.275
240.632446289,7033.95
240.93409729,7102.475
241.23576355,7128.125
241.537384033,7186.45
241.839004517,7243.025
242.140594482,7283.525
242.442199707,7344.8
242.743774414,7396.0
243.045333862,7410.375
243.346923828,7471.55
243.648452759,7537.3
243.949966431,7546.625
244.251495361,7591.3
244.552993774,7585.45
244.854492188,7586.5
245.155975342,7611.625
245.457443237,7634.45
245.758880615,7642.625
246.060333252,7641.8
246.36177063,7594.95
246.66317749,7610.95
246.964569092,7562.175
247.265945435,7554.825
247.567337036,7581.4
247.86869812,7603.0
248.170059204,7621.7
248.471389771,7646.6
248.772705078,7675.6
249.074035645,7721.15
249.375335693,7751.725
249.676620483,7775.15
249.977890015,7873.7
250.279159546,7950.35
250.58039856,8020.15
250.881637573,8051.55
251.182876587,8166.5
251.484069824,8241.475
251.785263062,8378.575
252.086456299,8490.55
252.387619019,8537.425
252.688781738,8578.475
252.989929199,8685.15
253.291061401,8831.725
253.592178345,8931.625
253.893280029,9004.375
254.194366455,9082.55
254.49546814,9106.875
254.796524048,9171.675
255.097579956,9270.2
255.398620605,9264.45
255.699645996,9369.1
256.000640869,9384.975
256.30166626,9398.4
256.602661133,9488.1
256.903656006,9411.775
257.204589844,9466.6
257.505523682,9396.7
257.80645752,9448.0
258.107391357,9380.775
258.408294678,9346.875
258.709228516,9299.85
259.010070801,9210.7
259.310943604,9234.9
259.611846924,9121.0
259.912658691,9062.4
260.213500977,8986.95
260.514343262,8912.425
260.815124512,8789.575
261.115936279,8777.65
261.416717529,8668.6
261.717468262,8646.8
262.018218994,8579.525
262.318969727,8547.425
262.619689941,8550.125
262.920410156,8622.7
263.221130371,8659.95
263.521789551,8647.95
263.822479248,8725.6
264.123138428,8747.85
264.42376709,8747.975
264.72442627,8704.725
265.025054932,8729.125
265.325622559,8739.8
265.626251221,8701.725
265.926818848,8603.925
266.227386475,8532.4
266.527954102,8468.8
266.828460693,8464.05
267.12902832,8317.225
267.429534912,8230.425
267.730010986,8156.95
268.030517578,8072.525
268.330993652,7994.275
268.631439209,7924.175
268.931915283,7887.675
269.232299805,7829.525
269.532745361,7777.325
269.8331604,7653.075
270.133544922,7635.425
270.433929443,7606.6
270.734313965,7557.8
271.034637451,7538.375
271.334991455,7481.525
271.635314941,7541.375
271.935638428,7518.875
272.235931396,7550.4
272.536254883,7620.95
272.836486816,7643.1
273.136749268,7717.325
273.437011719,7835.425
273.737213135,7913.025
274.037445068,8025.125
274.337677002,8123.45
274.6378479,8228.25
274.938049316,8369.35
275.238220215,8442.675
275.538360596,8600.95
275.838500977,8671.9
276.138641357,8858.95
276.438751221,8883.1
276.738830566,8975.75
277.03894043,9026.125
277.338989258,9217.725
277.639038086,9276.6
277.939056396,9326.975
278.239105225,9387.175
278.539093018,9467.35
278.839141846,9518.325
279.139129639,9563.425
279.439086914,9690.025
279.739044189,9735.775
280.039001465,9818.725
280.338928223,9808.425
280.63885498,9845.45
280.938781738,9941.275
281.238647461,9931.725
281.538513184,9969.925
281.838409424,9991.525
282.138244629,10020.8
282.438079834,10006.15
282.737945557,10036.725
283.037719727,10051.5
283.337524414,10078.1
283.637298584,10081.825
283.937072754,10050.025
284.236816406,10072.2
284.536560059,10014.15
284.836303711,10038.75
285.136016846,10089.5
285.43572998,10076.7
285.735412598,10039.75
286.035064697,10036.375
286.334747314,10084.35
286.634368896,10053.35
286.933990479,9936.15
287.233642578,9934.925
287.533203125,9902.7
287.832824707,9776.15
288.132385254,9691.125
288.431945801,9523.4
288.731506348,9326.025
289.031036377,9107.925
289.330566406,8980.0
289.630065918,8940.8
289.92956543,8910.75
290.229034424,8998.0
290.528503418,9210.175
290.827941895,9396.3
291.127380371,9564.775
291.42678833,9674.175
291.726226807,9825.05
292.025604248,9852.75
292.324981689,9914.4
292.624359131,9908.325
292.923736572,9893.95
293.223052979,9930.95
293.522369385,9930.425
293.821685791,9847.425
294.12097168,9815.8
294.420257568,9743.25
294.719543457,9738.15
295.018768311,9711.55
295.318023682,9631.625
295.617248535,9545.55
295.916442871,9479.45
296.215667725,9386.425
296.514862061,9219.125
296.813995361,8954.6
297.11315918,8726.725
297.412322998,8560.65
297.711425781,8509.775
298.010559082,8704.95
298.309631348,8922.0
298.608734131,9164.175
298.907806396,9395.575
299.206848145,9545.025
299.505889893,9642.9
299.804901123,9752.2
300.103912354,9832.15
300.402954102,9894.475
300.701904297,9990.1
301.00088501,10054.525
301.299835205,10140.775
301.5987854,10187.95
301.897735596,10280.875
302.196624756,10323.45
302.495513916,10402.0
302.794403076,10410.2
303.093292236,10498.125
303.392120361,10581.35
303.690979004,10605.15
303.989837646,10691.475
304.288604736,10739.625
304.587402344,10757.125
304.886199951,10820.15
305.184967041,10825.35
305.483734131,10909.775
305.782501221,10918.825
306.081176758,10934.275
306.37991333,10955.525
306.678619385,10959.975
306.977294922,10963.825
307.275970459,11015.9
307.574645996,11024.975
307.873260498,10978.05
308.171875,10975.1
308.470489502,10964.2
308.769104004,10881.125
309.067687988,10890.95
309.366241455,10916.925
309.664794922,10823.825
309.963348389,10869.1
310.261871338,10834.3
310.560394287,10834.85
310.858856201,10854.125
311.157348633,10901.975
311.455810547,10893.075
311.754272461,10915.075
312.052703857,11003.65
312.351135254,11002.775
312.649536133,11012.925
312.947937012,10982.6
313.246307373,11038.25
313.544647217,11017.75
313.843017578,10932.825
314.141387939,10915.4
314.439697266,10942.575
314.738006592,10878.9
315.036315918,10781.225
315.334564209,10689.075
315.6328125,10594.4
315.931091309,10521.225
316.229309082,10394.2
316.527526855,10220.05
316.825744629,10168.275
317.123901367,10020.425
317.422088623,9967.525
317.720245361,9979.075
318.0184021,9992.275
318.316497803,10061.0
318.614654541,10080.925
318.912750244,10176.65
319.21081543,10160.85
319.50894165,10217.75
319.806945801,10185.625
320.104980469,10177.475
320.403045654,10169.775
320.701049805,10105.3
320.999023438,10121.375
321.297027588,10071.325
321.595001221,10044.075
321.892913818,9998.65
322.190887451,9911.45
322.488830566,9836.65
322.786712646,9801.575
323.084625244,9653.65
323.382507324,9644.8
323.680358887,9558.375
323.978210449,9443.975
324.276062012,9406.55
324.573852539,9338.25
324.871643066,9259.325
325.169464111,9192.1
325.467224121,9109.175
325.764984131,9031.0
326.062744141,8920.025
326.360473633,8849.125
326.658203125,8768.375
326.955871582,8676.025
327.253570557,8608.675
327.551239014,8554.4
327.848907471,8448.6
328.146514893,8382.975
328.444152832,8291.775
328.741790771,8245.125
329.039367676,8190.525
329.336914062,8098.675
329.634521484,8014.45
329.932067871,7969.3
330.229553223,7841.9
330.527160645,7810.025
330.824615479,7738.25
331.12210083,7625.175
331.419586182,7499.0
331.717041016,7437.85
332.014465332,7349.025
332.311920166,7301.525
332.609313965,7235.025
332.906707764,7235.0
333.204101562,7206.675
333.501495361,7240.3
333.798828125,7294.05
334.096160889,7304.675
334.39352417,7365.125
334.690795898,7432.4
334.988098145,7473.775
335.285400391,7550.725
335.582641602,7523.85
335.879882812,7594.8
336.177124023,7604.675
336.474334717,7688.575
336.77154541,7676.475
337.068725586,7699.925
337.365905762,7683.5
337.66305542,7718.375
337.960205078,7762.125
338.257324219,7760.45
338.554443359,7756.1
338.8515625,7797.225
339.148590088,7776.075
339.445648193,7807.275
339.742736816,7735.6
340.039764404,7737.975
340.336761475,7681.3
340.63381958,7644.6
340.930755615,7592.575
341.227722168,7523.0
341.524688721,7397.0
341.821624756,7371.05
342.118560791,7381.95
342.415496826,7478.675
342.712402344,7633.05
343.009246826,7808.225
343.306121826,7936.075
343.602966309,7985.85
343.899810791,8115.075
344.196624756,8200.6
344.493438721,8200.0
344.79019165,8279.75
345.086975098,8357.075
345.383758545,8392.45
345.680480957,8367.475
345.977203369,8395.725
346.273956299,8440.925
346.570617676,8408.55
346.86730957,8443.925
347.163970947,8404.3
347.460601807,8466.9
347.757232666,8478.05
348.053894043,8469.6
348.350463867,8356.175
348.647064209,8352.1
348.943634033,8331.775
349.24017334,8330.5
349.536712646,8288.975
349.833251953,8290.05
350.129760742,8275.1
350.426208496,8231.4
350.722747803,8195.775
351.019195557,8208.55
351.315612793,8162.475
351.612060547,8116.075
351.908508301,8036.85
352.204864502,7993.925
352.501281738,7925.3
352.797637939,7861.075
353.093963623,7746.275
353.390319824,7667.25
353.686645508,7578.375
353.982940674,7491.75
354.27923584,7442.025
354.575531006,7389.6
354.871765137,7385.875
355.167999268,7340.85
355.464233398,7343.375
355.760437012,7354.575
356.056640625,7363.625
356.352813721,7359.175
356.648956299,7350.15
356.945129395,7391.375
357.241271973,7353.225
357.537384033,7398.95
357.833496094,7331.625
358.129577637,7315.95
358.425628662,7293.75
358.721679688,7264.65
359.017730713,7243.975
359.313720703,7166.975
359.609710693,7144.6
359.905761719,7045.75
360.201721191,7024.05
360.497650146,6953.525
360.793609619,6911.875
361.089538574,6840.925
361.385437012,6731.525
361.681365967,6686.025
361.977233887,6644.575
362.273071289,6555.65
362.568908691,6441.775
362.864746094,6302.95
363.160552979,6171.025
363.456359863,5922.75
363.752166748,5783.4
364.047912598,5679.85
364.343658447,5654.0
364.639434814,5691.225
364.935119629,5700.45
365.230834961,5798.875
365.526550293,5837.925
365.822174072,5861.225
366.117858887,5865.85
366.413482666,5929.875
366.709075928,5940.675
367.004730225,5815.925
367.300292969,5814.575
367.595855713,5893.325
367.891448975,5753.5
368.186981201,5624.5
368.482513428,5578.95
368.778015137,5571.725
369.073547363,5528.5
369.36895752,5520.825
369.664428711,5402.125
369.95993042,5280.475
370.255310059,5227.65
370.550720215,5196.775
370.846160889,5149.45
371.14151001,5118.775
371.436859131,5067.0
371.73223877,5059.925
372.027557373,5021.65
372.322875977,4946.575
372.618164062,4919.925
372.913482666,4862.05
373.208709717,4832.95
373.503967285,4772.225
373.799194336,4729.95
374.094421387,4727.7
374.389648438,4693.275
374.684844971,4679.225
374.979980469,4724.525
375.275146484,4740.675
375.570281982,4786.95
375.865386963,4774.475
376.160522461,4691.5
376.455596924,4715.025
376.750640869,4818.575
377.045715332,4829.8
377.340759277,4884.175
377.635772705,4942.075
377.93081665,4988.175
378.225769043,5060.925
378.520751953,5130.475
378.815734863,5084.675
379.110656738,5277.35
379.405548096,5492.3
379.700500488,5306.175
379.995391846,5033.3
380.290252686,5110.7
380.585083008,5219.0
380.879974365,5272.4
381.17477417,5173.925
381.469543457,5115.025
381.764404297,5070.9
382.059143066,5110.725
382.353912354,5222.55
382.648651123,5319.975
382.943389893,5286.325
383.238067627,5119.95
383.532775879,5100.25
383.827484131,5029.5
384.12210083,5038.45
384.416778564,4978.475
384.711425781,4856.2
385.006011963,4870.95
385.300628662,4863.35
385.595184326,4965.975
385.88973999,5084.375
386.184295654,5196.3
386.478820801,5272.0
386.77331543,5398.6
387.067840576,5507.575
387.362335205,5641.95
387.656768799,5706.525
387.951202393,5755.325
388.245635986,5832.6
388.540039062,5907.45
388.834472656,5990.875
389.128875732,5874.175
389.423187256,5614.95
389.717559814,5553.2
390.011871338,5680.475
390.306182861,5706.775
390.600463867,5701.1
390.894775391,5827.375
391.189025879,5832.85
391.48324585,5836.8
391.777526855,5895.875
392.071685791,6146.375
392.365875244,6278.725
392.660064697,6343.25
392.95425415,6724.925
393.248382568,6700.875
393.542510986,6142.575
393.836608887,5930.7
394.130706787,5943.575
394.424804688,5848.65
394.71887207,6034.55
395.012878418,5992.275
395.306915283,5859.3
395.600921631,5779.325
395.894927979,5736.9
396.188903809,5792.325
396.482879639,5798.15
396.776794434,6049.825
397.070739746,6014.9
397.364654541,6016.4
397.658538818,6503.275
397.952423096,6533.35
398.246307373,6455.65
398.540100098,7091.825
398.833953857,6946.275
399.127746582,6374.425
399.421508789,6390.5
399.715301514,6309.0
400.009063721,6194.125
400.30279541,6013.225
400.596496582,5925.35
400.890258789,6120.025
401.183929443,6207.0
401.47756958,6100.7
401.771240234,5800.15
402.064880371,5814.025
402.35848999,5891.075
402.652130127,5748.875
402.945678711,5826.275
403.239257812,5779.975
403.532775879,5703.725
403.82635498,5758.4
404.119842529,5667.55
404.413360596,5643.45
404.706848145,5716.85
405.000274658,5623.45
405.293762207,5712.625
405.587188721,5775.575
405.880584717,5604.625
406.17401123,5385.575
406.467407227,5136.1
406.760742188,5151.125
407.054107666,5191.5
407.347442627,5098.85
407.640716553,5096.375
407.934051514,5171.25
408.227325439,5253.175
408.520568848,5489.575
408.813842773,5570.225
409.107086182,5347.325
409.400238037,5300.6
409.693450928,5169.6
409.986633301,5355.25
410.279754639,5254.975
410.572875977,4898.625
410.86605835,4826.775
411.159118652,4869.45
411.452209473,4880.45
411.745330811,4701.275
412.038360596,4589.575
412.331390381,4629.475
412.624420166,4683.75
412.917388916,4582.175
413.210388184,4357.9
413.503387451,4321.475
413.796295166,4203.8
414.089233398,3985.45
414.382141113,3904.6
414.675048828,3868.875
414.967926025,3920.2
415.260803223,3841.225
415.55368042,3885.05
415.846466064,3837.375
416.139282227,3932.825
416.432098389,4073.375
416.724853516,4072.925
417.017608643,4000.275
417.31036377,4024.875
417.603088379,4169.175
417.895782471,4152.125
418.188476562,4088.1
418.481140137,4168.325
418.773803711,4243.575
419.066436768,4197.675
419.359039307,4281.15
419.651641846,4286.575
419.944244385,4279.425
420.236816406,4252.275
420.529327393,4492.55
420.821899414,4568.975
421.114379883,4482.475
421.406860352,4800.95
421.699371338,5064.025
421.991821289,4994.125
422.284240723,4770.625
422.576721191,4585.1
422.869110107,4462.925
423.161468506,4404.8
423.453857422,4441.45
423.74621582,4301.5
424.038543701,4140.0
424.330871582,4100.2
424.623168945,4021.625
424.915435791,4191.05
425.207702637,4120.0
425.499969482,4064.025
425.792205811,3985.475
426.084411621,3717.15
426.376617432,3806.75
426.668762207,3870.575
426.9609375,3736.525
427.253082275,3875.5
427.545196533,4353.55
427.837310791,4028.35
428.129425049,3686.8
428.421447754,3949.0
428.713531494,3952.675
429.005554199,3938.825
429.297576904,3949.85
429.589599609,4444.125
429.881561279,4819.6
430.173522949,4549.675
430.465484619,4513.65
430.757415771,4581.9
431.049316406,4306.625
431.341186523,4047.2
431.633117676,3923.4
431.924957275,3574.8
432.21673584,3448.525
432.508636475,3617.05
432.800415039,3637.825
433.092163086,3505.0
433.383972168,3476.275
433.675689697,4310.3
433.967437744,4901.275
434.259155273,3777.525
434.550872803,3410.8
434.842498779,3469.55
435.134185791,3607.025
435.425842285,3660.375
435.717437744,3553.7
436.009063721,3313.85
436.30065918,3485.525
436.592224121,3892.875
436.883758545,3655.875
437.175323486,3343.2
437.466827393,3310.7
437.758331299,3338.85
438.049804688,3351.95
438.341247559,3442.025
438.63269043,3510.975
438.924163818,3505.9
439.215515137,3453.475
439.50692749,3346.725
439.798309326,3373.275
440.089660645,3367.475
440.380981445,3257.475
440.672332764,3260.65
440.963623047,3567.5
441.254882812,4101.825
441.546173096,4317.5
441.837402344,4012.275
442.128631592,3807.05
442.41986084,3759.325
442.711029053,3626.45
443.002197266,3689.825
443.293365479,3919.325
443.584503174,4075.425
443.875610352,4035.325
444.166717529,3742.825
444.457794189,3803.0
444.748840332,3793.475
445.039916992,3704.025
445.330932617,3825.5
445.621948242,3645.55
445.912963867,3422.45
446.203918457,3689.125
446.494812012,3947.45
446.785827637,3718.2
447.076721191,3513.475
447.367584229,3489.675
447.658447266,3445.1
447.949371338,3517.15
448.24017334,3365.825
448.530975342,3283.875
448.821838379,3495.925
449.112579346,3571.475
449.40335083,3477.675
449.694152832,3528.05
449.984863281,3527.375
450.27557373,3445.85
450.56628418,3535.05
450.856933594,3545.475
451.147583008,3353.05
451.438262939,3234.4
451.728881836,3465.2
452.019470215,3569.825
452.310089111,3329.225
452.600646973,3387.725
452.891174316,3438.2
453.181732178,3235.6
453.472229004,3088.6
453.762695312,3207.025
454.053222656,3238.35
454.343658447,3094.825
454.634063721,3021.4
454.924530029,3237.175
455.214935303,3386.275
455.505279541,3459.0
455.795715332,3294.8
456.086029053,3065.025
456.376312256,3058.8
456.666687012,3086.125
456.956939697,3199.25
457.247192383,3214.25
457.537445068,3288.7
457.827728271,3506.65
458.117919922,3431.025
458.408081055,3346.225
458.698303223,3546.425
458.988433838,3451.325
459.278564453,3264.375
459.568725586,3586.675
459.858825684,3720.475
460.148864746,3356.925
460.438995361,3317.3
460.729034424,3374.625
461.019042969,3374.325
461.309082031,3616.225
461.599060059,3479.85
461.889007568,2947.4
462.179016113,2739.725
462.468933105,3008.4
462.75881958,3149.35
463.048736572,2849.875
463.338592529,3152.425
463.628448486,3589.6
463.918365479,3213.525
464.2081604,3425.7
464.497924805,3387.075
464.787780762,3513.725
465.077514648,3869.875
465.367218018,3442.15
465.657012939,3669.0
465.946685791,4150.15
466.236358643,3700.55
466.526092529,3063.55
466.815734863,3057.675
467.105316162,2982.3
467.394927979,3009.95
467.684570312,2822.575
467.974121094,2929.825
468.263671875,3063.025
468.553222656,2814.55
468.842773438,2706.1
469.132232666,2566.9
469.42175293,2612.4
469.711212158,2576.725
470.000640869,2426.5
470.290100098,2495.2
470.579498291,2548.025
470.868835449,2542.225
471.158294678,2485.8
471.447601318,2471.525
471.736907959,2540.225
472.026275635,2625.475
472.315551758,2612.275
472.604797363,2599.25
472.894104004,2755.05
473.183319092,2881.175
473.47253418,2869.35
473.761779785,2857.3
474.05090332,2785.65
474.340087891,2727.925
474.629241943,2641.975
474.918365479,2840.975
475.207427979,3159.775
475.496551514,3185.025
475.785614014,2892.9
476.074645996,2647.975
476.363708496,2755.65
476.652679443,2923.15
476.941650391,2703.75
477.230682373,2535.625
477.519622803,2530.05
477.808502197,2717.5
478.097412109,3030.0
478.386352539,2967.325
478.675201416,2654.75
478.964050293,2526.325
479.25289917,2758.275
479.541717529,2827.5
479.830474854,2644.65
480.11932373,3046.95
480.408050537,3242.825
480.696777344,2812.425
480.985534668,2655.825
481.274200439,2769.975
481.562866211,3041.0
481.851593018,3075.8
482.140197754,3011.475
482.428833008,2824.6
482.717468262,2575.975
483.006011963,2627.8
483.294586182,2754.225
483.5831604,2792.425
483.871673584,2647.1
484.16015625,2827.5
484.448699951,3091.325
484.7371521,3151.475
485.02557373,3149.8
485.314025879,2835.425
485.602416992,4386.95
485.890777588,15392.1
486.179199219,13837.475
486.467559814,3730.925
486.755859375,2714.725
487.044219971,3177.825
487.332519531,3389.525
487.620758057,2900.8
487.908966064,2596.525
488.197265625,2351.325
488.485473633,2254.35
488.773651123,2388.1
489.061859131,2373.125
489.350006104,2314.625
489.638122559,2257.225
489.926300049,2276.9
490.214355469,2229.05
490.502441406,2157.625
490.790527344,2081.7
491.078552246,2313.725
491.366546631,2303.5
491.654602051,2039.3
491.942565918,2113.675
492.230499268,2172.85
492.518493652,2138.75
492.806396484,2175.075
493.094268799,2070.475
493.382202148,2108.25
493.670074463,2264.4
493.957885742,2083.425
494.245727539,2062.2
494.533508301,2266.15
494.821289062,2129.7
495.109100342,1961.025
495.396850586,1899.85
495.684539795,1843.225
495.972290039,2098.125
496.25994873,2505.575
496.547607422,2513.675
496.835296631,2294.95
497.122894287,1915.8
497.410522461,1827.525
497.6980896,1826.775
497.985687256,1789.2
498.273223877,1905.45
498.560760498,1988.9
498.848266602,2028.0
499.135772705,1999.05
499.423217773,2039.125
499.710693359,2173.4
499.998138428,2082.775
500.285522461,1892.4
500.572937012,1804.6
500.860290527,1868.15
501.147644043,1988.825
501.434997559,2257.925
501.722290039,2095.3
502.00958252,1827.775
502.296875,2137.15
502.584106445,2120.275
502.871337891,1905.3
503.158599854,1990.325
503.445770264,2096.725
503.732910156,2060.75
504.020141602,1842.475
504.307220459,1812.8
504.594329834,1857.875
504.881469727,1786.275
505.168518066,1879.9
505.455535889,1963.2
505.742614746,1808.975
506.029632568,1725.05
506.316589355,1960.575
506.603637695,2065.325
506.890563965,1834.5
507.177459717,1634.925
507.464385986,1527.125
507.751312256,1803.075
508.038146973,1896.25
508.325012207,1720.15
508.611877441,1801.875
508.898681641,1802.775
509.185424805,1621.375
509.472259521,1576.475
509.759002686,1669.4
510.045715332,1706.5
510.332458496,1636.95
510.619140625,1712.725
510.905761719,1607.925
511.192504883,1606.6
511.479095459,1658.0
511.765686035,1597.975
512.052307129,1512.95
512.338928223,1449.0
512.625427246,1505.175
512.91204834,1574.45
513.198486328,1559.1
513.484985352,1514.75
513.77142334,1407.5
514.057922363,1474.475
514.344299316,1471.775
514.63079834,1424.175
514.917175293,1408.0
515.203552246,1310.325
515.489868164,1279.075
515.776245117,1413.65
516.0625,1469.075
516.348815918,1357.075
516.635070801,1397.825
516.921325684,1464.075
517.207580566,1393.425
517.493774414,1281.1
517.779968262,1283.175
518.066101074,1332.1
518.352294922,1275.15
518.638366699,1281.45
518.924499512,1378.25
519.210632324,1473.35
519.496643066,1430.75
519.782714844,1302.975
520.068786621,1264.0
520.354736328,1213.925
520.640686035,1161.125
520.926757812,1228.475
521.212646484,1316.725
521.498535156,1322.1
521.784484863,1259.1
522.0703125,1180.8
522.356262207,1197.2
522.642089844,1291.35
522.927856445,1276.675
523.213684082,1271.8
523.499511719,1268.4
523.78527832,1307.875
524.070983887,1375.1
524.356750488,1351.275
524.64239502,1299.2
524.928039551,1291.975
525.213806152,1308.85
525.499389648,1292.8
525.784973145,1323.15
526.070617676,1387.875
526.356140137,1346.8
526.641723633,1350.375
526.927307129,1428.85
527.212768555,1421.875
527.498291016,1404.05
527.783752441,1398.875
528.069213867,1383.625
528.354675293,1408.425
528.640014648,1608.3
528.925476074,1694.1
529.21081543,1587.225
529.496154785,1564.4
529.781555176,1517.2
530.066833496,1547.9
530.352050781,1563.3
530.637390137,1550.375
530.922607422,1541.825
531.207824707,1538.375
531.493041992,1526.475
531.778198242,1615.7
532.063354492,1579.425
532.348571777,1522.325
532.633666992,1539.15
532.918762207,1636.525
533.203857422,1733.875
533.488891602,1777.925
533.773925781,1698.875
534.059020996,1677.125
534.343933105,1698.7
534.628967285,1675.925
534.91394043,1694.875
535.198852539,1714.525
535.483703613,1684.4
535.768676758,1613.0
536.053527832,1621.9
536.338317871,1567.625
536.62322998,1489.3
536.90802002,1465.025
537.192810059,1488.675
537.477539062,1580.375
537.762329102,1626.5
538.047058105,1683.775
538.331726074,1718.5
538.616455078,1698.55
538.901123047,1668.4
539.18572998,1733.5
539.470397949,1736.3
539.755004883,1719.175
540.039550781,1670.2
540.32409668,1621.3
540.608703613,1663.925
540.893188477,1791.5
541.17767334,1807.45
541.462158203,1804.425
541.746643066,1745.625
542.031066895,1791.325
542.315429688,1854.875
542.59979248,1856.375
542.884216309,1822.9
543.168579102,1818.675
543.452941895,1819.0
543.737243652,1889.525
544.021484375,1944.725
544.305725098,1930.55
544.590026855,1904.825
544.874267578,1910.25
545.158447266,2003.225
545.442626953,1896.8
545.726806641,1769.2
546.010925293,1831.125
546.29510498,1861.45
546.579162598,1851.15
546.863220215,1883.35
547.147277832,1966.0
547.431335449,2048.8
547.715332031,2136.85
547.999328613,2265.325
548.283325195,2280.975
548.567260742,2106.1
548.851135254,2071.05
549.135070801,2034.925
549.419006348,1911.95
549.702819824,2021.875
549.986755371,2129.575
550.270507812,2085.65
550.554321289,2118.1
550.83807373,2148.95
551.121826172,2081.225
551.405517578,2116.575
551.689331055,2246.875
551.973022461,2514.4
552.256652832,2586.55
552.540344238,2475.35
552.823974609,2447.15
553.107543945,2432.025
553.391174316,2497.05
553.674743652,2557.35
553.958251953,2565.95
554.241821289,2584.375
554.525268555,2517.125
554.808776855,2526.8
555.092285156,2736.875
555.375671387,2828.35
555.659057617,2815.75
555.942504883,2867.475
556.225891113,2885.6
556.509216309,2845.55
556.792541504,2751.275
557.075866699,2821.975
557.359130859,2881.625
557.64239502,2889.675
557.92565918,2975.425
558.208862305,2946.475
558.49206543,2869.925
558.77532959,2885.225
559.058410645,2942.3
559.341552734,2924.925
559.624694824,2987.55
559.907775879,3062.8
560.190856934,3220.175
560.473937988,3216.375
560.756896973,3249.275
561.039978027,3286.65
561.322937012,3238.1
561.605895996,3240.375
561.88885498,3195.75
562.171813965,3184.8
562.454650879,3182.3
562.737548828,3220.55
563.020446777,3316.35
563.303283691,3323.775
563.58605957,3362.875
563.868896484,3380.95
564.151672363,3453.35
564.434387207,3468.35
564.717163086,3459.8
564.99987793,3489.05
565.282531738,3566.175
565.565185547,3492.95
565.847839355,3511.175
566.130432129,3658.4
566.413085938,3617.45
566.695678711,3630.625
566.978149414,3768.125
567.260681152,3951.875
567.543273926,4031.325
567.825744629,3902.9
568.108154297,3959.1
568.390686035,4097.3
568.673095703,4248.125
568.955505371,4295.9
569.237854004,4335.0
569.520202637,4659.025
569.802490234,4901.225
570.084838867,4886.95
570.367126465,4702.275
570.649414062,4711.125
570.93170166,5118.95
571.213928223,5215.0
571.496154785,4919.425
571.778381348,5173.1
572.06048584,5481.075
572.342590332,4940.575
572.624755859,4543.25
572.906860352,4616.45
573.188903809,5427.575
573.470947266,5706.075
573.752990723,5414.35
574.03503418,5532.725
574.317016602,6010.225
574.598937988,5738.025
574.88092041,5596.775
575.162841797,5816.25
575.444763184,5361.55
575.726623535,5067.05
576.008483887,5134.625
576.290344238,5584.4
576.572143555,5829.1
576.853881836,5911.25
577.135681152,5775.5
577.417419434,5843.575
577.699157715,6869.9
577.980895996,7057.45
578.262573242,6299.275
578.544128418,5749.25
578.825866699,5651.1
579.107421875,5300.825
579.388977051,5506.65
579.670593262,5971.325
579.952148438,5770.8
580.233642578,5914.95
580.515197754,6043.1
580.796691895,5651.025
581.078125,5878.35
581.359619141,7642.875
581.640991211,7752.425
581.922363281,6693.075
582.203796387,6771.325
582.485107422,6333.65
582.766418457,5860.55
583.047790527,5673.325
583.329040527,5547.25
583.610290527,5385.775
583.891540527,5515.85
584.172790527,5870.5
584.453918457,5897.0
584.735107422,5933.5
585.016235352,6486.75
585.297363281,6426.65
585.578552246,6207.3
585.859619141,6128.675
586.140625,5874.325
586.421630859,5706.1
586.702697754,5764.075
586.983642578,6025.625
587.264648438,6215.45
587.545654297,6155.275
587.826477051,6093.8
588.107421875,5885.925
588.388305664,5897.85
588.669189453,6022.475
588.950012207,5843.675
589.230834961,5762.65
589.511657715,5845.4
589.792358398,5926.825
590.073120117,5944.525
590.353881836,5902.65
590.63458252,5905.575
590.915283203,5852.7
591.195922852,5872.6
591.4765625,5910.45
591.757202148,5974.05
592.037780762,5964.725
592.31829834,5965.925
592.598937988,6217.95
592.879394531,6390.85
593.159912109,6287.85
593.440429688,6222.5
593.720825195,6189.4
594.001281738,6169.075
594.281677246,6067.225
594.562072754,6078.775
594.842407227,6208.375
595.122802734,6242.1
595.403137207,6217.4
595.683410645,6210.475
595.963623047,6186.75
596.243896484,6116.925
596.524169922,6103.65
596.804382324,6133.75
597.084533691,6186.475
597.364746094,6221.95
597.644836426,6214.975
597.924987793,6206.95
598.205078125,6156.675
598.485107422,6213.025
598.765197754,6365.5
599.045227051,6404.075
599.325195312,6284.625
599.605224609,6232.45
599.885192871,6298.8
600.165100098,6320.575
600.445007324,6270.525
600.724914551,6280.175
601.004760742,6290.95
601.284667969,6325.075
601.56451416,6273.725
601.844238281,6265.65
602.124084473,6271.55
602.403808594,6287.375
602.683532715,6305.825
602.963256836,6293.0
603.242919922,6353.45
603.522583008,6402.0
603.802246094,6373.125
604.081848145,6322.875
604.36138916,6312.125
604.641052246,6335.5
604.920532227,6303.65
605.200073242,6377.05
605.479614258,6380.5
605.759094238,6414.35
606.038574219,6396.725
606.317932129,6329.6
606.597412109,6329.425
606.87677002,6347.975
607.15612793,6389.475
607.435546875,6408.65
607.714782715,6390.15
607.99407959,6317.15
608.273376465,6330.625
608.552612305,6352.55
608.831848145,6368.025
609.111083984,6359.25
609.390258789,6349.125
609.669433594,6332.475
609.948608398,6396.175
610.227722168,6368.175
610.506713867,6310.875
610.785888672,6345.975
611.064880371,6304.825
611.34387207,6324.775
611.622924805,6351.0
611.901916504,6349.45
612.180847168,6293.775
612.459777832,6275.6
612.738647461,6299.425
613.01751709,6250.85
613.296447754,6200.975
613.575317383,6177.775
613.854064941,6107.125
614.132873535,6027.925
614.411621094,5950.175
614.690368652,5883.75
614.969177246,5834.325
615.247802734,5734.825
615.526489258,5729.025
615.805175781,5596.6
616.08380127,5474.425
616.362365723,5356.1
616.640991211,5332.3
616.919555664,5267.8
617.198059082,5390.7
617.4765625,5694.4
617.755126953,5850.625
618.033569336,5897.375
618.311950684,5867.45
618.590454102,5860.55
618.868774414,5837.525
619.147155762,5856.075
619.425598145,5835.225
619.703857422,5829.8
619.982177734,5850.225
620.260498047,5839.6
620.538757324,5829.05
620.816955566,5804.675
621.095214844,5742.35
621.373413086,5776.5
621.651550293,5849.325
621.929748535,5862.825
622.207824707,5843.75
622.485900879,5866.925
622.764038086,5862.6
623.042053223,5900.225
623.320007324,5917.25
623.598083496,5937.5
623.876037598,5899.475
624.153991699,5926.175
624.432006836,5939.85
624.709838867,5950.275
624.987731934,5947.3
625.265563965,5935.575
625.543395996,5982.525
625.821228027,6028.775
626.098999023,5987.75
626.376831055,6072.375
626.654541016,6096.25
626.932250977,6109.65
627.209960938,6161.85
627.487670898,6190.1
627.765319824,6190.05
628.04296875,6202.925
628.320495605,6198.9
628.598083496,6223.1
628.875671387,6246.375
629.153259277,6284.325
629.430725098,6338.625
629.708251953,6340.55
629.985656738,6357.8
630.263122559,6406.125
630.540588379,6425.9
630.817932129,6439.2
631.095275879,6491.725
631.372680664,6527.575
631.649963379,6605.2
631.927246094,6630.875
632.204589844,6667.625
632.481811523,6764.95
632.759033203,6846.875
633.036254883,6861.8
633.313415527,6962.525
633.590576172,7020.8
633.867736816,7133.5
634.144836426,7186.875
634.421875,7238.9
634.698913574,7327.85
634.976013184,7356.6
635.252990723,7433.625
635.529968262,7460.675
635.807006836,7566.575
636.08392334,7529.725
636.360839844,7458.6
636.637756348,7350.6
636.914611816,7298.65
637.191467285,7307.15
637.468261719,7399.325
637.745056152,7346.3
638.021789551,7330.95
638.298583984,7355.9
638.575317383,7431.1
638.851989746,7416.5
639.12878418,7397.825
639.405395508,7427.025
639.682006836,7447.925
639.958618164,7428.5
640.235229492,7409.8
640.511779785,7484.65
640.788330078,7459.4
641.064880371,7463.425
641.341308594,7428.425
641.617797852,7467.675
641.894226074,7448.325
642.170654297,7461.7
642.44708252,7474.875
642.723388672,7458.025
642.999755859,7433.375
643.276123047,7444.05
643.552429199,7445.275
643.828674316,7437.95
644.104919434,7419.0
644.381164551,7402.525
644.657348633,7431.85
644.933532715,7346.85
645.209716797,7398.675
645.485839844,7373.325
645.761901855,7364.975
646.038024902,7371.275
646.314086914,7404.875
646.590087891,7385.925
646.866149902,7439.8
647.142150879,7381.575
647.41809082,7374.625
647.694030762,7363.525
647.969970703,7358.55
648.245788574,7378.425
648.521728516,7343.3
648.797546387,7368.0
649.073303223,7381.525
649.349182129,7369.425
649.624938965,7337.7
649.900634766,7315.675
650.176391602,7353.45
650.452087402,7344.15
650.727783203,7319.35
651.003479004,7330.8
651.279052734,7323.55
651.554626465,7321.325
651.83026123,7318.975
652.105773926,7348.75
652.381286621,7303.05
652.656860352,7312.15
652.932312012,7340.975
653.207763672,7330.6
653.483215332,7362.05
653.758605957,7355.775
654.033935547,7357.675
654.309326172,7374.55
654.584716797,7360.825
654.859985352,7359.2
655.135253906,7380.65
655.410583496,7421.075
655.685791016,8547.9
655.9609375,13258.3
656.236206055,12895.275
656.511291504,8609.55
656.786437988,7580.125
657.061645508,7484.55
657.336669922,7443.4
657.611694336,7510.675
657.886779785,7492.925
658.161804199,7527.5
658.436828613,7463.675
658.711791992,7464.175
658.986755371,7510.975
659.261657715,7494.85
659.536621094,7512.3
659.811401367,7521.85
660.086303711,7532.225
660.36114502,7526.9
660.635864258,7562.7
660.910644531,7591.975
661.185424805,7573.2
661.460205078,7656.45
661.734863281,7603.2
662.009521484,7634.5
662.284179688,7654.75
662.558776855,7685.7
662.833435059,7719.775
663.108032227,7737.125
663.382568359,7698.85
663.657043457,7745.9
663.93157959,7796.325
664.206054688,7778.2
664.48046875,7802.2
664.755004883,7813.35
665.02935791,7860.075
665.303710938,7885.175
665.578125,7913.325
665.852416992,7885.625
666.126708984,7891.525
666.401062012,7922.65
666.675292969,7970.6
666.949462891,7928.9
667.223754883,7977.35
667.497924805,8002.7
667.772094727,8031.875
668.046264648,7981.85
668.3203125,8062.55
668.594421387,8055.1
668.868469238,8077.775
669.14251709,8089.025
669.416503906,8114.25
669.690551758,8142.525
669.964477539,8175.2
670.23840332,8171.7
670.512329102,8191.6
670.786254883,8137.575
671.060058594,8233.425
671.333984375,8248.425
671.607788086,8287.275
671.881530762,8287.9
672.155334473,8320.8
672.429077148,8304.675
672.702758789,8311.625
672.97644043,8301.875
673.25012207,8308.55
673.523742676,8330.0
673.797302246,8339.875
674.070922852,8404.65
674.344482422,8382.5
674.618041992,8387.675
674.891601562,8387.875
675.165100098,8405.875
675.438476562,8413.4
675.711975098,8446.9
675.985412598,8452.425
676.258789062,8459.65
676.532165527,8519.275
676.805480957,8486.925
677.078796387,8504.925
677.352111816,8519.775
677.625366211,8537.35
677.898620605,8490.125
678.171875,8577.625
678.445007324,8545.05
678.718200684,8591.825
678.991394043,8586.875
679.264404297,8570.775
679.537536621,8623.475
679.81060791,8635.7
680.083679199,8664.85
680.356689453,8665.3
680.629699707,8692.6
680.902648926,8664.525
681.175598145,8704.225
681.448547363,8753.025
681.721435547,8695.275
681.99420166,8706.1
682.267150879,8684.0
682.539916992,8776.775
682.812744141,8752.1
683.085510254,8740.925
683.358215332,8782.2
683.63092041,8775.825
683.903625488,8788.3
684.176330566,8770.85
684.448913574,8747.1
684.721557617,8747.65
684.99420166,8821.6
685.266662598,8808.675
685.539245605,8821.85
685.811767578,8888.725
686.084289551,8864.125
686.356689453,8877.575
686.629150391,8923.9
686.901550293,8936.325
687.17401123,8950.875
687.446350098,8977.525
687.718688965,8994.2
687.990966797,9072.625
688.263305664,9045.275
688.535522461,9025.95
688.807739258,8993.0
689.079956055,9097.925
689.352172852,9142.625
689.624328613,9115.775
689.896484375,9177.925
690.168518066,9160.85
690.440612793,9169.175
690.71270752,9204.9
690.984741211,9196.2
691.256713867,9262.175
691.528747559,9214.3
691.800720215,9252.475
692.072631836,9256.8
692.344543457,9302.575
692.616394043,9283.375
692.888244629,9312.5
693.160095215,9354.45
693.431945801,9382.525
693.703674316,9349.275
693.975463867,9351.45
694.247131348,9400.65
694.518859863,9372.7
694.790588379,9412.925
695.062255859,9447.35
695.33380127,9430.475
695.60546875,9438.425
695.87701416,9481.5
696.148498535,9493.725
696.42010498,9529.35
696.691589355,9563.975
696.96307373,9585.25
697.234558105,9644.2
697.50592041,9632.8
697.777282715,9632.575
698.048706055,9644.575
698.320068359,9705.575
698.591308594,9659.75
698.862670898,9681.45
699.133972168,9712.075
699.405151367,9704.65
699.676391602,9767.825
699.947570801,9725.95
700.21875,9753.425
700.489868164,9760.325
700.761047363,9772.725
701.032104492,9828.9
701.303100586,9770.625
701.57421875,9838.7
701.845214844,9817.0
702.116149902,9889.65
702.387207031,9845.625
702.65814209,9908.875
702.928955078,9918.425
703.199951172,9867.6
703.47076416,9831.725
703.741577148,9835.675
704.012451172,9912.325
704.28314209,9924.925
704.553955078,9899.625
704.824707031,9965.275
705.095397949,10016.3
705.366027832,10009.0
705.63671875,10028.075
705.907348633,9994.625
706.17791748,10034.325
706.448486328,10056.95
706.719055176,10093.375
706.989562988,10085.825
707.260131836,10068.9
707.530517578,10115.275
707.800964355,10142.3
708.071411133,10075.475
708.341796875,10071.675
708.612182617,10096.425
708.882446289,10046.525
709.152893066,10057.625
709.423156738,10096.05
709.693359375,10074.95
709.963623047,10111.025
710.233825684,10115.0
710.503967285,10098.05
710.774169922,10130.0
711.044311523,10112.675
711.31439209,10137.675
711.584533691,10108.35
711.854553223,10152.025
712.124572754,10143.525
712.39465332,10102.925
712.664611816,10161.55
712.934509277,10222.6
713.204467773,10163.25
713.474365234,10207.65
713.74420166,10162.575
714.014099121,10212.775
714.283874512,10200.65
714.553710938,10238.375
714.823486328,10254.6
715.093200684,10209.45
715.362915039,10248.425
715.632629395,10236.125
715.902282715,10198.75
716.171875,10215.7
716.441589355,10231.05
716.711181641,10202.675
716.980712891,10224.625
717.250244141,10249.675
717.519775391,10254.35
717.78918457,10267.95
718.058654785,10313.95
718.328125,10288.025
718.597473145,10229.725
718.866882324,10251.725
719.136230469,10291.875
719.405578613,10323.4
719.674865723,10329.175
719.944152832,10309.675
720.213439941,10283.3
720.48260498,10339.7
720.75177002,10343.425
721.020996094,10335.35
721.290100098,10351.75
721.559204102,10311.275
721.828308105,10327.9
722.097351074,10320.725
722.366455078,10306.275
722.635437012,10303.625
722.904418945,10297.875
723.173400879,10332.625
723.442321777,10390.725
723.711181641,10310.875
723.980102539,10348.175
724.248962402,10339.775
724.51776123,10341.025
724.786560059,10382.425
725.055358887,10378.1
725.324035645,10347.475
725.592834473,10358.3
725.86151123,10357.25
726.130187988,10414.0
726.398803711,10346.025
726.667419434,10341.5
726.935974121,10343.1
727.204528809,10318.2
727.473083496,10311.1
727.741638184,10260.4
728.010070801,10240.675
728.278564453,10265.4
728.546936035,10262.775
728.815368652,10169.65
729.08380127,10088.85
729.352111816,10064.65
729.620361328,10030.55
729.88873291,10080.3
730.156982422,10116.35
730.425231934,10137.4
730.693481445,10094.6
730.961669922,10170.675
731.229797363,10245.8
731.49798584,10259.575
731.766113281,10328.65
732.034118652,10377.225
732.302246094,10440.125
732.570251465,10484.95
732.838256836,10498.1
733.106262207,10568.675
733.374145508,10588.0
733.642089844,10693.45
733.909973145,10750.825
734.177856445,10830.0
734.445678711,10928.475
734.713562012,11057.675
734.981323242,11086.95
735.249084473,11094.475
735.516845703,11256.55
735.784545898,11360.0
736.052185059,11402.95
736.319885254,11521.4
736.587524414,11534.05
736.855102539,11618.475
737.122619629,11766.3
737.390197754,11811.825
737.657714844,11929.075
737.925170898,11996.875
738.192749023,12165.85
738.460144043,12211.1
738.727539062,12245.725
738.994995117,12381.25
739.262329102,12466.5
739.529663086,12585.4
739.79699707,12625.3
740.06427002,12700.85
740.331481934,12843.375
740.598754883,12870.4
740.865905762,12906.95
741.133056641,13110.05
741.40032959,13123.775
741.667358398,13212.25
741.934448242,13261.975
742.201599121,13250.1
742.468566895,13335.25
742.735534668,13402.625
743.002563477,13472.3
743.26953125,13404.425
743.536437988,13524.25
743.803405762,13659.125
744.0703125,13587.875
744.337097168,13735.775
744.604003906,13620.45
744.870727539,13707.75
745.137512207,13770.45
745.40423584,13834.075
745.670959473,13785.25
745.93762207,13792.45
746.204284668,13802.075
746.470947266,13849.45
746.737548828,13838.1
747.004089355,13894.825
747.270751953,13893.825
747.53717041,13934.65
747.803710938,13832.025
748.070251465,13821.525
748.336608887,13840.65
748.603027344,13810.2
748.869445801,13785.45
749.135803223,13844.025
749.402099609,13808.475
749.668457031,13811.875
749.934753418,13766.2
750.20098877,13711.175
750.467224121,13808.525
750.733459473,13776.575
750.999572754,13760.475
751.26574707,13645.925
751.531860352,13749.15
751.797912598,13690.2
752.064025879,13614.7
752.330078125,13634.1
752.596069336,13575.1
752.862060547,13545.95
753.127990723,13574.075
753.393920898,13521.2
753.659912109,13487.35
753.925720215,13492.1
754.19152832,13425.95
754.457397461,13386.575
754.723144531,13341.625
754.988952637,13304.875
755.254699707,13313.675
755.520385742,13341.675
755.786071777,13341.075
756.051696777,13306.45
756.317382812,13215.3
756.582946777,13174.275
756.848510742,13195.55
757.114074707,13142.55
757.379577637,13185.275
757.645080566,13244.425
757.910583496,13200.775
758.175964355,13107.85
758.441345215,13074.1
758.706848145,12913.45
758.972106934,12918.775
759.237426758,12941.8
759.502807617,12984.85
759.768005371,12980.475
760.03326416,12901.9
760.298522949,12822.425
760.563659668,12867.375
760.828857422,12820.875
761.093994141,12802.0
761.359130859,12749.25
761.624206543,12693.8
761.889282227,12690.425
762.15423584,12675.275
762.419250488,12671.75
762.684265137,12616.15
762.949157715,12574.9
763.214050293,12577.85
763.479003906,12560.425
763.743835449,12551.675
764.008666992,12475.925
764.2734375,12490.325
764.538208008,12513.375
764.802978516,12553.525
765.067687988,12481.85
765.332397461,12495.35
765.597045898,12452.1
765.861694336,12432.3
766.126342773,12376.425
766.390930176,12375.35
766.655395508,12296.825
766.920043945,12237.375
767.184509277,12235.875
767.448974609,12267.225
767.713439941,12247.925
767.977783203,12224.975
768.2421875,12277.25
768.506591797,12176.025
768.770874023,12310.125
769.03515625,12258.1
769.299499512,12207.925
769.563720703,12220.875
769.827941895,12143.675
770.092163086,12106.55
770.356323242,12090.05
770.620483398,12120.3
770.88458252,12136.525
771.148681641,12126.675
771.412719727,12101.075
771.676757812,12122.5
771.940734863,12031.175
772.204711914,12029.15
772.468688965,11988.325
772.73260498,11944.75
772.996459961,12006.575
773.260314941,10696.4
773.524169922,1351.75
773.787963867,161.8
774.051696777,122.975
774.315551758,119.35
774.579223633,123.6
774.842895508,119.85
775.106567383,121.95
775.370239258,118.05
775.633789062,121.825
775.897399902,127.225
776.160949707,117.925
776.424499512,118.675
776.687988281,124.775
776.951477051,125.225
777.214904785,117.775
777.47833252,123.675
