191.299911499,100.9
191.603515625,102.825
191.907119751,99.0
192.210693359,105.6
192.514251709,100.05
192.817810059,104.75
193.121368408,102.7
193.42489624,109.225
193.728408813,101.525
194.031936646,100.675
194.33543396,95.575
194.638916016,112.475
194.94241333,97.3
195.245880127,98.575
195.549331665,97.4
195.852767944,101.95
196.156204224,171.475
196.459625244,168.7
196.763015747,171.75
197.066436768,176.775
197.369812012,170.425
197.673187256,169.025
197.9765625,166.525
198.279922485,170.2
198.583251953,163.825
198.886581421,167.45
199.18989563,172.475
199.493209839,169.1
199.79649353,161.95
200.09979248,173.225
200.403076172,168.575
200.706314087,168.575
201.009567261,167.85
201.312820435,171.95
201.616027832,161.325
201.919235229,161.05
202.222457886,166.325
202.525634766,171.35
202.828826904,156.85
203.132003784,164.0
203.435150146,164.2
203.738296509,163.25
204.041412354,163.425
204.344558716,166.275
204.647659302,167.6
204.950759888,167.525
205.253845215,169.25
205.556930542,158.775
205.859985352,163.625
206.163024902,162.825
206.466079712,164.9
206.769104004,174.65
207.072113037,160.525
207.375137329,166.375
207.678131104,164.475
207.981109619,167.225
208.284088135,162.85
208.587036133,166.35
208.889984131,168.025
209.19291687,167.175
209.495849609,169.45
209.798751831,169.175
210.101654053,166.0
210.404556274,168.1
210.707427979,165.825
211.010269165,172.125
211.31312561,168.6
211.615982056,167.6
211.918807983,170.825
212.221618652,168.575
212.524429321,165.8
212.827224731,172.825
213.130004883,167.825
213.432769775,170.025
213.735534668,170.9
214.038269043,170.925
214.341003418,169.475
214.643737793,172.8
214.946456909,174.275
215.249145508,171.425
215.551834106,172.2
215.854507446,176.225
216.157165527,175.4
216.45980835,173.35
216.762451172,175.725
217.065078735,179.25
217.36769104,176.4
217.670303345,177.375
217.972885132,177.9
218.275466919,181.175
218.578048706,177.4
218.880599976,180.625
219.183120728,182.65
219.485656738,182.2
219.788192749,192.65
220.090682983,201.875
220.393188477,210.225
220.695663452,234.6
220.998138428,241.9
221.300582886,270.2
221.603042603,279.45
221.905487061,307.4
222.207901001,336.0
222.510299683,366.05
222.812728882,405.175
223.115097046,444.5
223.41746521,484.4
223.719848633,513.95
224.022171021,545.65
224.324508667,581.45
224.626846313,627.65
224.929168701,659.225
225.231460571,708.075
225.533737183,736.875
225.836013794,768.775
226.138290405,807.65
226.440536499,834.525
226.742767334,857.225
227.044998169,872.775
227.347213745,907.15
227.649429321,923.475
227.951629639,943.125
228.253799438,955.45
228.555953979,967.95
228.858123779,987.55
229.160263062,988.35
229.462371826,1002.275
229.764511108,1006.65
230.066619873,1008.4
230.36869812,1007.925
230.670776367,1021.4
230.972854614,1019.75
231.274902344,1019.25
231.576950073,1045.375
231.878967285,1032.125
232.180999756,1045.725
232.48298645,1066.65
232.784988403,1053.025
233.086975098,1055.25
233.388946533,1055.1
233.69090271,1071.775
233.992858887,1083.775
234.294769287,1068.2
234.596694946,1064.65
234.898605347,1081.55
235.200500488,1076.275
235.502380371,1063.375
235.804244995,1067.5
236.106109619,1045.425
236.407958984,1058.15
236.709777832,1057.4
237.011581421,1055.7
237.313400269,1033.1
237.615203857,1029.95
237.916976929,1033.525
238.21875,1023.925
238.520507812,1016.925
238.822250366,1037.325
239.12399292,1014.775
239.425704956,1031.95
239.727401733,1009.425
240.02911377,1011.2
240.330780029,1004.45
240.632446289,990.375
240.93409729,1006.65
241.23576355,999.825
241.537384033,1007.975
241.839004517,1008.975
242.140594482,1001.875
242.442199707,1010.0
242.743774414,1016.2
243.045333862,1013.525
243.346923828,1018.75
243.648452759,1022.425
243.949966431,1016.8
244.251495361,1032.95
244.552993774,1031.175
244.854492188,1032.725
245.155975342,1029.325
245.457443237,1038.3
245.758880615,1041.9
246.060333252,1049.975
246.36177063,1032.3
246.66317749,1053.225
246.964569092,1043.35
247.265945435,1060.25
247.567337036,1057.95
247.86869812,1067.675
248.170059204,1079.5
248.471389771,1092.575
248.772705078,1094.5
249.074035645,1118.675
249.375335693,1127.175
249.676620483,1154.4
249.977890015,1168.25
250.279159546,1197.425
250.58039856,1210.975
250.881637573,1231.15
251.182876587,1260.2
251.484069824,1282.475
251.785263062,1310.125
252.086456299,1350.825
252.387619019,1379.825
252.688781738,1397.4
252.989929199,1421.1
253.291061401,1479.525
253.592178345,1505.025
253.893280029,1536.15
254.194366455,1583.375
254.49546814,1620.025
254.796524048,1648.3
255.097579956,1693.825
255.398620605,1719.575
255.699645996,1755.625
256.000640869,1779.45
256.30166626,1821.3
256.602661133,1854.375
256.903656006,1881.6
257.204589844,1902.575
257.505523682,1939.75
257.80645752,1975.725
258.107391357,2012.35
258.408294678,2025.775
258.709228516,2044.975
259.010070801,2063.95
259.310943604,2091.725
259.611846924,2106.125
259.912658691,2121.3
260.213500977,2147.725
260.514343262,2147.05
260.815124512,2159.5
261.115936279,2189.9
261.416717529,2208.15
261.717468262,2229.95
262.018218994,2251.25
262.318969727,2283.275
262.619689941,2321.125
262.920410156,2362.075
263.221130371,2414.05
263.521789551,2458.7
263.822479248,2509.825
264.123138428,2554.025
264.42376709,2594.975
264.72442627,2621.575
265.025054932,2654.575
265.325622559,2690.55
265.626251221,2724.35
265.926818848,2739.55
266.227386475,2730.95
266.527954102,2753.9
266.828460693,2799.35
267.12902832,2777.325
267.429534912,2809.7
267.730010986,2810.525
268.030517578,2800.8
268.330993652,2825.5
268.631439209,2828.35
268.931915283,2829.675
269.232299805,2849.775
269.532745361,2866.375
269.8331604,2861.175
270.133544922,2885.975
270.433929443,2904.5
270.734313965,2918.225
271.034637451,2964.625
271.334991455,2964.45
271.635314941,3011.7
271.935638428,3036.425
272.235931396,3078.225
272.536254883,3122.175
272.836486816,3183.0
273.136749268,3235.05
273.437011719,3316.85
273.737213135,3381.975
274.037445068,3463.75
274.337677002,3539.975
274.6378479,3609.275
274.938049316,3708.1
275.238220215,3781.925
275.538360596,3883.625
275.838500977,3959.575
276.138641357,4052.475
276.438751221,4098.3
276.738830566,4194.4
277.03894043,4272.275
277.338989258,4364.5
277.639038086,4448.4
277.939056396,4506.35
278.239105225,4579.175
278.539093018,4642.15
278.839141846,4714.275
279.139129639,4778.925
279.439086914,4860.375
279.739044189,4920.475
280.039001465,5003.275
280.338928223,5044.925
280.63885498,5102.9
280.938781738,5187.725
281.238647461,5233.35
281.538513184,5252.3
281.838409424,5329.85
282.138244629,5376.85
282.438079834,5382.175
282.737945557,5446.5
283.037719727,5516.825
283.337524414,5539.875
283.637298584,5588.0
283.937072754,5626.45
284.236816406,5648.6
284.536560059,5666.875
284.836303711,5688.525
285.136016846,5757.6
285.43572998,5783.875
285.735412598,5805.55
286.035064697,5835.725
286.334747314,5898.9
286.634368896,5899.4
286.933990479,5899.1
287.233642578,5873.125
287.533203125,5889.45
287.832824707,5837.125
288.132385254,5808.7
288.431945801,5733.275
288.731506348,5654.65
289.031036377,5555.325
289.330566406,5483.4
289.630065918,5479.125
289.92956543,5488.65
290.229034424,5575.6
290.528503418,5704.125
290.827941895,5840.725
291.127380371,5958.075
291.42678833,6070.225
291.726226807,6187.15
292.025604248,6234.0
292.324981689,6297.275
292.624359131,6296.475
292.923736572,6298.925
293.223052979,6359.05
293.522369385,6373.125
293.821685791,6342.275
294.12097168,6345.55
294.420257568,6312.575
294.719543457,6330.075
295.018768311,6317.525
295.318023682,6280.225
295.617248535,6244.575
295.916442871,6246.975
296.215667725,6172.775
296.514862061,6079.775
296.813995361,5916.0
297.11315918,5770.75
297.412322998,5670.525
297.711425781,5657.025
298.010559082,5765.25
298.309631348,5945.175
298.608734131,6114.025
298.907806396,6285.5
299.206848145,6429.225
299.505889893,6484.725
299.804901123,6569.175
300.103912354,6622.8
300.402954102,6704.75
300.701904297,6753.05
301.00088501,6824.35
301.299835205,6924.25
301.5987854,6905.725
301.897735596,6991.8
302.196624756,7028.75
302.495513916,7107.0
302.794403076,7140.15
303.093292236,7188.85
303.392120361,7242.425
303.690979004,7295.625
303.989837646,7330.35
304.288604736,7397.925
304.587402344,7381.75
304.886199951,7442.25
305.184967041,7472.5
305.483734131,7508.2
305.782501221,7535.3
306.081176758,7578.0
306.37991333,7574.025
306.678619385,7583.125
306.977294922,7619.825
307.275970459,7622.425
307.574645996,7626.1
307.873260498,7607.9
308.171875,7646.575
308.470489502,7658.7
308.769104004,7584.3
309.067687988,7586.775
309.366241455,7564.1
309.664794922,7547.95
309.963348389,7590.025
310.261871338,7585.375
310.560394287,7563.3
310.858856201,7578.1
311.157348633,7645.125
311.455810547,7648.3
311.754272461,7637.425
312.052703857,7719.75
312.351135254,7721.0
312.649536133,7745.65
312.947937012,7709.125
313.246307373,7763.925
313.544647217,7740.375
313.843017578,7688.45
314.141387939,7676.825
314.439697266,7724.175
314.738006592,7651.35
315.036315918,7577.4
315.334564209,7521.55
315.6328125,7470.05
315.931091309,7421.65
316.229309082,7322.4
316.527526855,7201.6
316.825744629,7183.325
317.123901367,7103.1
317.422088623,7081.825
317.720245361,7052.15
318.0184021,7088.95
318.316497803,7120.625
318.614654541,7142.725
318.912750244,7204.05
319.21081543,7223.175
319.50894165,7238.925
319.806945801,7268.675
320.104980469,7233.675
320.403045654,7256.075
320.701049805,7224.3
320.999023438,7202.1
321.297027588,7161.85
321.595001221,7154.975
321.892913818,7142.425
322.190887451,7073.75
322.488830566,7010.35
322.786712646,7021.0
323.084625244,6920.0
323.382507324,6923.025
323.680358887,6844.1
323.978210449,6769.275
324.276062012,6715.575
324.573852539,6669.95
324.871643066,6631.65
325.169464111,6568.025
325.467224121,6533.55
325.764984131,6470.0
326.062744141,6424.1
326.360473633,6332.075
326.658203125,6275.0
326.955871582,6232.25
327.253570557,6157.525
327.551239014,6126.325
327.848907471,6067.225
328.146514893,6015.325
328.444152832,5958.825
328.741790771,5905.25
329.039367676,5877.475
329.336914062,5787.825
329.634521484,5763.1
329.932067871,5733.675
330.229553223,5655.5
330.527160645,5623.125
330.824615479,5567.1
331.12210083,5496.25
331.419586182,5409.675
331.717041016,5368.95
332.014465332,5288.35
332.311920166,5286.5
332.609313965,5230.675
332.906707764,5213.625
333.204101562,5218.85
333.501495361,5218.65
333.798828125,5247.0
334.096160889,5281.025
334.39352417,5346.175
334.690795898,5376.5
334.988098145,5410.6
335.285400391,5504.975
335.582641602,5486.6
335.879882812,5523.15
336.177124023,5515.9
336.474334717,5585.4
336.77154541,5572.225
337.068725586,5621.725
337.365905762,5590.625
337.66305542,5612.35
337.960205078,5630.05
338.257324219,5673.4
338.554443359,5640.35
338.8515625,5668.025
339.148590088,5690.775
339.445648193,5684.875
339.742736816,5657.15
340.039764404,5642.225
340.336761475,5615.475
340.63381958,5573.325
340.930755615,5547.475
341.227722168,5475.25
341.524688721,5408.625
341.821624756,5370.5
342.118560791,5400.85
342.415496826,5466.15
342.712402344,5570.725
343.009246826,5705.45
343.306121826,5822.475
343.602966309,5858.025
343.899810791,5916.225
344.196624756,6017.675
344.493438721,6022.225
344.79019165,6066.825
345.086975098,6124.45
345.383758545,6165.975
345.680480957,6128.725
345.977203369,6151.475
346.273956299,6180.025
346.570617676,6194.15
346.86730957,6185.8
347.163970947,6163.325
347.460601807,6214.25
347.757232666,6229.875
348.053894043,6221.7
348.350463867,6161.575
348.647064209,6125.05
348.943634033,6140.675
349.24017334,6145.075
349.536712646,6093.65
349.833251953,6100.625
350.129760742,6090.35
350.426208496,6064.425
350.722747803,6026.8
351.019195557,6044.35
351.315612793,5992.5
351.612060547,5966.125
351.908508301,5914.7
352.204864502,5871.0
352.501281738,5841.775
352.797637939,5768.55
353.093963623,5693.775
353.390319824,5661.875
353.686645508,5572.6
353.982940674,5499.85
354.27923584,5488.825
354.575531006,5430.375
354.871765137,5413.075
355.167999268,5410.525
355.464233398,5411.175
355.760437012,5415.3
356.056640625,5405.45
356.352813721,5413.6
356.648956299,5421.525
356.945129395,5446.175
357.241271973,5435.575
357.537384033,5451.15
357.833496094,5423.525
358.129577637,5406.325
358.425628662,5387.3
358.721679688,5362.85
359.017730713,5344.0
359.313720703,5278.0
359.609710693,5269.325
359.905761719,5203.55
360.201721191,5189.7
360.497650146,5132.125
360.793609619,5116.9
361.089538574,5028.175
361.385437012,4998.275
361.681365967,4952.2
361.977233887,4903.5
362.273071289,4853.375
362.568908691,4751.975
362.864746094,4667.825
363.160552979,4540.575
363.456359863,4387.375
363.752166748,4267.775
364.047912598,4194.925
364.343658447,4161.35
364.639434814,4184.5
364.935119629,4217.2
365.230834961,4291.925
365.526550293,4307.625
365.822174072,4316.85
366.117858887,4343.675
366.413482666,4372.05
366.709075928,4392.2
367.004730225,4308.25
367.300292969,4297.55
367.595855713,4364.075
367.891448975,4247.9
368.186981201,4177.7
368.482513428,4131.775
368.778015137,4114.0
369.073547363,4074.725
369.36895752,4083.475
369.664428711,4015.6
369.95993042,3919.7
370.255310059,3857.3
370.550720215,3846.8
370.846160889,3804.025
371.14151001,3781.475
371.436859131,3767.175
371.73223877,3746.175
372.027557373,3717.275
372.322875977,3654.4
372.618164062,3644.95
372.913482666,3597.775
373.208709717,3585.9
373.503967285,3542.875
373.799194336,3492.0
374.094421387,3509.075
374.389648438,3476.35
374.684844971,3461.85
374.979980469,3494.4
375.275146484,3525.95
375.570281982,3536.525
375.865386963,3531.0
376.160522461,3503.2
376.455596924,3505.925
376.750640869,3569.825
377.045715332,3581.2
377.340759277,3613.025
377.635772705,3670.875
377.93081665,3713.325
378.225769043,3768.35
378.520751953,3820.35
378.815734863,3782.125
379.110656738,3937.025
379.405548096,4083.3
379.700500488,3946.4
379.995391846,3769.325
380.290252686,3810.625
380.585083008,3892.625
380.879974365,3940.625
381.17477417,3860.5
381.469543457,3802.775
381.764404297,3781.95
382.059143066,3828.125
382.353912354,3896.3
382.648651123,3978.5
382.943389893,3972.8
383.238067627,3795.725
383.532775879,3803.55
383.827484131,3752.4
384.12210083,3762.75
384.416778564,3709.425
384.711425781,3628.275
385.006011963,3643.725
385.300628662,3632.45
385.595184326,3717.475
385.88973999,3774.45
386.184295654,3880.975
386.478820801,3942.55
386.77331543,4036.075
387.067840576,4141.425
387.362335205,4220.9
387.656768799,4285.625
387.951202393,4324.15
388.245635986,4391.425
388.540039062,4449.625
388.834472656,4499.775
389.128875732,4424.9
389.423187256,4216.325
389.717559814,4169.675
390.011871338,4258.3
390.306182861,4299.15
390.600463867,4309.025
390.894775391,4369.525
391.189025879,4403.725
391.48324585,4385.275
391.777526855,4437.325
392.071685791,4608.9
392.365875244,4726.675
392.660064697,4765.675
392.95425415,5068.375
393.248382568,5064.075
393.542510986,4624.85
393.836608887,4484.85
394.130706787,4483.85
394.424804688,4421.475
394.71887207,4521.875
395.012878418,4523.8
395.306915283,4422.325
395.600921631,4358.325
395.894927979,4336.6
396.188903809,4368.0
396.482879639,4391.25
396.776794434,4565.275
397.070739746,4544.55
397.364654541,4544.675
397.658538818,4895.875
397.952423096,4921.0
398.246307373,4904.1
398.540100098,5372.425
398.833953857,5277.8
399.127746582,4818.65
399.421508789,4829.025
399.715301514,4766.65
400.009063721,4700.975
400.30279541,4556.475
400.596496582,4480.525
400.890258789,4630.125
401.183929443,4717.075
401.47756958,4609.0
401.771240234,4412.65
402.064880371,4405.3
402.35848999,4456.75
402.652130127,4357.025
402.945678711,4421.575
403.239257812,4384.075
403.532775879,4312.7
403.82635498,4366.825
404.119842529,4298.2
404.413360596,4287.05
404.706848145,4328.725
405.000274658,4257.7
405.293762207,4332.8
405.587188721,4387.45
405.880584717,4231.4
406.17401123,4074.4
406.467407227,3901.525
406.760742188,3910.5
407.054107666,3943.475
407.347442627,3883.45
407.640716553,3868.85
407.934051514,3918.725
408.227325439,3987.225
408.520568848,4183.125
408.813842773,4256.4
409.107086182,4083.225
409.400238037,4038.425
409.693450928,3964.175
409.986633301,4054.975
410.279754639,3984.4
410.572875977,3737.425
410.86605835,3658.85
411.159118652,3687.85
411.452209473,3673.05
411.745330811,3571.0
412.038360596,3489.075
412.331390381,3541.35
412.624420166,3555.5
412.917388916,3481.575
413.210388184,3308.1
413.503387451,3286.575
413.796295166,3200.125
414.089233398,3045.75
414.382141113,2986.45
414.675048828,2958.975
414.967926025,2995.675
415.260803223,2947.875
415.55368042,2970.65
415.846466064,2927.2
416.139282227,3010.375
416.432098389,3108.9
416.724853516,3110.625
417.017608643,3055.95
417.31036377,3066.225
417.603088379,3179.2
417.895782471,3166.425
418.188476562,3125.95
418.481140137,3190.075
418.773803711,3249.85
419.066436768,3216.9
419.359039307,3288.45
419.651641846,3274.05
419.944244385,3287.925
420.236816406,3253.25
420.529327393,3452.95
420.821899414,3500.725
421.114379883,3436.3
421.406860352,3684.825
421.699371338,3869.675
421.991821289,3839.225
422.284240723,3650.475
422.576721191,3516.0
422.869110107,3414.95
423.161468506,3371.075
423.453857422,3409.925
423.74621582,3300.375
424.038543701,3172.975
424.330871582,3159.475
424.623168945,3085.475
424.915435791,3199.275
425.207702637,3178.225
425.499969482,3133.45
425.792205811,3059.725
426.084411621,2849.9
426.376617432,2915.375
426.668762207,2973.6
426.9609375,2886.2
427.253082275,2984.7
427.545196533,3345.8
427.837310791,3098.725
428.129425049,2832.4
428.421447754,3027.775
428.713531494,3031.85
429.005554199,3041.075
429.297576904,3032.075
429.589599609,3429.15
429.881561279,3694.925
430.173522949,3509.975
430.465484619,3450.6
430.757415771,3524.7
431.049316406,3312.65
431.341186523,3123.6
431.633117676,3021.75
431.924957275,2765.475
432.21673584,2656.55
432.508636475,2792.925
432.800415039,2800.375
433.092163086,2710.625
433.383972168,2700.25
433.675689697,3330.875
433.967437744,3770.25
434.259155273,2917.175
434.550872803,2622.65
434.842498779,2659.175
435.134185791,2797.625
435.425842285,2819.775
435.717437744,2723.65
436.009063721,2562.1
436.30065918,2685.0
436.592224121,2995.95
436.883758545,2804.7
437.175323486,2592.925
437.466827393,2562.225
437.758331299,2586.3
438.049804688,2602.05
438.341247559,2651.225
438.63269043,2725.5
438.924163818,2716.525
439.215515137,2670.4
439.50692749,2589.575
439.798309326,2598.625
440.089660645,2597.5
440.380981445,2528.425
440.672332764,2521.075
440.963623047,2766.275
441.254882812,3169.475
441.546173096,3326.4
441.837402344,3114.525
442.128631592,2945.825
442.41986084,2909.925
442.711029053,2796.675
443.002197266,2864.65
443.293365479,3015.95
443.584503174,3156.025
443.875610352,3134.425
444.166717529,2898.1
444.457794189,2931.225
444.748840332,2917.75
445.039916992,2869.35
445.330932617,2970.575
445.621948242,2830.025
445.912963867,2646.275
446.203918457,2864.0
446.494812012,3067.55
446.785827637,2875.55
447.076721191,2714.75
447.367584229,2702.375
447.658447266,2701.45
447.949371338,2728.175
448.24017334,2614.75
448.530975342,2557.15
448.821838379,2709.425
449.112579346,2756.2
449.40335083,2715.225
449.694152832,2730.975
449.984863281,2745.65
450.27557373,2696.575
450.56628418,2745.85
450.856933594,2757.75
451.147583008,2612.025
451.438262939,2515.65
451.728881836,2702.15
452.019470215,2774.825
452.310089111,2591.125
452.600646973,2617.875
452.891174316,2678.925
453.181732178,2512.475
453.472229004,2396.95
453.762695312,2499.625
454.053222656,2525.5
454.343658447,2402.175
454.634063721,2345.825
454.924530029,2515.45
455.214935303,2622.7
455.505279541,2690.2
455.795715332,2560.625
456.086029053,2391.45
456.376312256,2373.7
456.666687012,2406.05
456.956939697,2488.275
457.247192383,2485.55
457.537445068,2565.45
457.827728271,2731.9
458.117919922,2660.55
458.408081055,2592.2
458.698303223,2754.925
458.988433838,2699.425
459.278564453,2539.05
459.568725586,2788.55
459.858825684,2906.175
460.148864746,2605.15
460.438995361,2579.125
460.729034424,2620.075
461.019042969,2635.25
461.309082031,2796.7
461.599060059,2697.175
461.889007568,2300.825
462.179016113,2131.425
462.468933105,2354.75
462.75881958,2454.95
463.048736572,2209.175
463.338592529,2440.275
463.628448486,2771.45
463.918365479,2509.75
464.2081604,2661.375
464.497924805,2623.05
464.787780762,2727.75
465.077514648,3015.225
465.367218018,2670.025
465.657012939,2846.2
465.946685791,3203.625
466.236358643,2865.2
466.526092529,2373.0
466.815734863,2368.675
467.105316162,2318.75
467.394927979,2329.85
467.684570312,2210.325
467.974121094,2286.85
468.263671875,2381.875
468.553222656,2192.375
468.842773438,2087.425
469.132232666,2000.475
469.42175293,2021.1
469.711212158,2002.325
470.000640869,1891.05
470.290100098,1946.175
470.579498291,1975.6
470.868835449,1965.65
471.158294678,1926.75
471.447601318,1930.8
471.736907959,1989.125
472.026275635,2040.65
472.315551758,2032.7
472.604797363,2026.225
472.894104004,2138.15
473.183319092,2240.65
473.47253418,2224.35
473.761779785,2203.45
474.05090332,2159.55
474.340087891,2107.4
474.629241943,2042.225
474.918365479,2198.05
475.207427979,2438.825
475.496551514,2462.4
475.785614014,2242.375
476.074645996,2046.0
476.363708496,2141.875
476.652679443,2261.675
476.941650391,2102.025
477.230682373,1965.85
477.519622803,1965.125
477.808502197,2108.65
478.097412109,2337.225
478.386352539,2288.3
478.675201416,2052.1
478.964050293,1956.35
479.25289917,2129.65
479.541717529,2174.35
479.830474854,2041.425
480.11932373,2338.3
480.408050537,2505.65
480.696777344,2162.2
480.985534668,2050.875
481.274200439,2126.05
481.562866211,2357.325
481.851593018,2365.075
482.140197754,2318.925
482.428833008,2182.575
482.717468262,1992.425
483.006011963,2023.85
483.294586182,2113.925
483.5831604,2159.225
483.871673584,2035.0
484.16015625,2170.675
484.448699951,2385.775
484.7371521,2415.275
485.02557373,2411.25
485.314025879,2177.025
485.602416992,3347.85
485.890777588,11952.6
486.179199219,10686.025
486.467559814,2861.2
486.755859375,2072.7
487.044219971,2409.375
487.332519531,2581.025
487.620758057,2217.5
487.908966064,1990.725
488.197265625,1801.3
488.485473633,1715.975
488.773651123,1824.65
489.061859131,1815.25
489.350006104,1772.225
489.638122559,1720.95
489.926300049,1739.3
490.214355469,1701.6
490.502441406,1649.3
490.790527344,1584.55
491.078552246,1756.475
491.366546631,1747.825
491.654602051,1544.05
491.942565918,1609.225
492.230499268,1653.6
492.518493652,1618.3
492.806396484,1643.85
493.094268799,1565.05
493.382202148,1603.35
493.670074463,1703.075
493.957885742,1567.2
494.245727539,1549.65
494.533508301,1703.675
494.821289062,1603.775
495.109100342,1476.975
495.396850586,1431.0
495.684539795,1391.4
495.972290039,1581.5
496.25994873,1870.3
496.547607422,1885.325
496.835296631,1728.9
497.122894287,1427.65
497.410522461,1373.175
497.6980896,1365.975
497.985687256,1344.2
498.273223877,1442.0
498.560760498,1490.525
498.848266602,1513.5
499.135772705,1476.325
499.423217773,1523.0
499.710693359,1609.4
499.998138428,1558.675
500.285522461,1412.25
500.572937012,1337.95
500.860290527,1395.05
501.147644043,1473.025
501.434997559,1675.575
501.722290039,1554.475
502.00958252,1345.075
502.296875,1570.225
502.584106445,1562.4
502.871337891,1409.925
503.158599854,1471.9
503.445770264,1538.95
503.732910156,1525.45
504.020141602,1353.925
504.307220459,1347.6
504.594329834,1367.925
504.881469727,1320.05
505.168518066,1379.3
505.455535889,1442.975
505.742614746,1330.425
506.029632568,1260.95
506.316589355,1431.2
506.603637695,1507.45
506.890563965,1339.1
507.177459717,1188.725
507.464385986,1118.075
507.751312256,1317.025
508.038146973,1378.375
508.325012207,1270.7
508.611877441,1313.65
508.898681641,1323.625
509.185424805,1190.3
509.472259521,1147.375
509.759002686,1217.85
510.045715332,1252.175
510.332458496,1204.975
510.619140625,1251.05
510.905761719,1174.725
511.192504883,1158.825
511.479095459,1208.15
511.765686035,1162.9
512.052307129,1091.075
512.338928223,1045.4
512.625427246,1096.575
512.91204834,1148.525
513.198486328,1125.65
513.484985352,1090.275
513.77142334,1038.775
514.057922363,1071.025
514.344299316,1073.75
514.63079834,1038.525
514.917175293,1027.325
515.203552246,944.5
515.489868164,926.15
515.776245117,1032.325
516.0625,1053.675
516.348815918,986.775
516.635070801,1018.1
516.921325684,1053.75
517.207580566,1002.4
517.493774414,927.75
517.779968262,943.55
518.066101074,970.725
518.352294922,928.5
518.638366699,931.95
518.924499512,1000.975
519.210632324,1059.65
519.496643066,1026.2
519.782714844,949.15
520.068786621,918.55
520.354736328,889.825
520.640686035,846.725
520.926757812,887.45
521.212646484,957.5
521.498535156,960.9
521.784484863,914.525
522.0703125,857.2
522.356262207,870.125
522.642089844,936.675
522.927856445,925.875
523.213684082,917.525
523.499511719,925.675
523.78527832,947.35
524.070983887,984.35
524.356750488,980.725
524.64239502,946.05
524.928039551,936.5
525.213806152,949.3
525.499389648,934.7
525.784973145,965.55
526.070617676,994.875
526.356140137,976.25
526.641723633,974.525
526.927307129,1026.175
527.212768555,1032.1
527.498291016,1009.625
527.783752441,1013.375
528.069213867,987.375
528.354675293,1020.75
528.640014648,1152.175
528.925476074,1201.9
529.21081543,1140.325
529.496154785,1120.3
529.781555176,1094.0
530.066833496,1110.925
530.352050781,1127.275
530.637390137,1108.95
530.922607422,1115.45
531.207824707,1108.45
531.493041992,1096.325
531.778198242,1160.1
532.063354492,1132.05
532.348571777,1088.225
532.633666992,1107.25
532.918762207,1164.575
533.203857422,1245.6
533.488891602,1262.3
533.773925781,1224.35
534.059020996,1189.65
534.343933105,1221.825
534.628967285,1190.425
534.91394043,1210.6
535.198852539,1217.625
535.483703613,1200.775
535.768676758,1143.875
536.053527832,1155.7
536.338317871,1117.15
536.62322998,1072.975
536.90802002,1048.7
537.192810059,1073.525
537.477539062,1138.425
537.762329102,1171.325
538.047058105,1202.05
538.331726074,1225.25
538.616455078,1206.6
538.901123047,1188.25
539.18572998,1233.875
539.470397949,1229.875
539.755004883,1226.6
540.039550781,1193.375
540.32409668,1162.05
540.608703613,1193.825
540.893188477,1280.975
541.17767334,1286.75
541.462158203,1284.95
541.746643066,1243.7
542.031066895,1279.825
542.315429688,1310.725
542.59979248,1310.725
542.884216309,1300.05
543.168579102,1305.8
543.452941895,1297.075
543.737243652,1341.25
544.021484375,1377.675
544.305725098,1373.175
544.590026855,1348.325
544.874267578,1364.825
545.158447266,1419.6
545.442626953,1351.075
545.726806641,1259.275
546.010925293,1290.2
546.29510498,1311.2
546.579162598,1317.825
546.863220215,1342.125
547.147277832,1394.7
547.431335449,1464.25
547.715332031,1514.025
547.999328613,1601.175
548.283325195,1601.125
548.567260742,1484.875
548.851135254,1468.625
549.135070801,1438.975
549.419006348,1362.075
549.702819824,1438.15
549.986755371,1494.6
550.270507812,1471.175
550.554321289,1509.1
550.83807373,1511.975
551.121826172,1472.8
551.405517578,1494.575
551.689331055,1597.6
551.973022461,1777.95
552.256652832,1822.85
552.540344238,1746.125
552.823974609,1729.3
553.107543945,1708.775
553.391174316,1756.05
553.674743652,1799.275
553.958251953,1801.3
554.241821289,1802.325
554.525268555,1762.725
554.808776855,1758.4
555.092285156,1905.85
555.375671387,1975.1
555.659057617,1979.8
555.942504883,1999.975
556.225891113,2027.475
556.509216309,2004.15
556.792541504,1924.35
557.075866699,1977.825
557.359130859,1999.675
557.64239502,2012.625
557.92565918,2069.925
558.208862305,2057.35
558.49206543,2000.925
558.77532959,2018.575
559.058410645,2051.95
559.341552734,2036.925
559.624694824,2080.275
559.907775879,2143.125
560.190856934,2239.775
560.473937988,2225.175
560.756896973,2274.1
561.039978027,2297.2
561.322937012,2246.625
561.605895996,2246.725
561.88885498,2227.05
562.171813965,2211.775
562.454650879,2219.075
562.737548828,2231.9
563.020446777,2295.625
563.303283691,2301.45
563.58605957,2339.875
563.868896484,2358.425
564.151672363,2394.0
564.434387207,2418.525
564.717163086,2388.2
564.99987793,2424.15
565.282531738,2475.9
565.565185547,2431.15
565.847839355,2423.05
566.130432129,2521.325
566.413085938,2505.6
566.695678711,2523.3
566.978149414,2616.375
567.260681152,2747.025
567.543273926,2788.3
567.825744629,2710.525
568.108154297,2734.8
568.390686035,2829.25
568.673095703,2946.6
568.955505371,2979.3
569.237854004,3013.5
569.520202637,3209.325
569.802490234,3378.125
570.084838867,3360.9
570.367126465,3221.15
570.649414062,3225.6
570.93170166,3530.475
571.213928223,3570.8
571.496154785,3398.875
571.778381348,3570.8
572.06048584,3770.7
572.342590332,3390.775
572.624755859,3109.7
572.906860352,3185.65
573.188903809,3732.05
573.470947266,3918.625
573.752990723,3744.35
574.03503418,3821.7
574.317016602,4129.625
574.598937988,3957.65
574.88092041,3862.775
575.162841797,4009.45
575.444763184,3702.25
575.726623535,3502.875
576.008483887,3530.725
576.290344238,3844.9
576.572143555,4007.525
576.853881836,4086.825
577.135681152,3986.075
577.417419434,4031.55
577.699157715,4715.375
577.980895996,4892.425
578.262573242,4351.25
578.544128418,3951.45
578.825866699,3916.9
579.107421875,3655.45
579.388977051,3800.025
579.670593262,4137.925
579.952148438,4004.2
580.233642578,4098.1
580.515197754,4181.45
580.796691895,3946.65
581.078125,4085.425
581.359619141,5299.625
581.640991211,5383.0
581.922363281,4662.0
582.203796387,4700.925
582.485107422,4381.15
582.766418457,4056.9
583.047790527,3946.5
583.329040527,3851.675
583.610290527,3743.025
583.891540527,3845.65
584.172790527,4112.85
584.453918457,4103.25
584.735107422,4159.825
585.016235352,4523.725
585.297363281,4530.0
585.578552246,4354.725
585.859619141,4304.275
586.140625,4117.2
586.421630859,4014.725
586.702697754,4036.425
586.983642578,4226.8
587.264648438,4368.375
587.545654297,4344.425
587.826477051,4293.3
588.107421875,4131.475
588.388305664,4144.5
588.669189453,4249.35
588.950012207,4128.0
589.230834961,4045.975
589.511657715,4116.775
589.792358398,4208.675
590.073120117,4205.35
590.353881836,4174.625
590.63458252,4191.825
590.915283203,4174.025
591.195922852,4160.175
591.4765625,4211.75
591.757202148,4232.0
592.037780762,4230.25
592.31829834,4231.65
592.598937988,4424.05
592.879394531,4549.6
593.159912109,4481.05
593.440429688,4427.2
593.720825195,4436.85
594.001281738,4417.85
594.281677246,4341.6
594.562072754,4388.225
594.842407227,4447.3
595.122802734,4494.325
595.403137207,4482.125
595.683410645,4452.725
595.963623047,4440.125
596.243896484,4418.225
596.524169922,4429.7
596.804382324,4447.75
597.084533691,4488.075
597.364746094,4493.1
597.644836426,4503.925
597.924987793,4514.775
598.205078125,4507.725
598.485107422,4524.35
598.765197754,4642.15
599.045227051,4671.75
599.325195312,4606.05
599.605224609,4572.45
599.885192871,4608.65
600.165100098,4641.05
600.445007324,4591.3
600.724914551,4603.925
601.004760742,4605.05
601.284667969,4628.075
601.56451416,4606.05
601.844238281,4610.425
602.124084473,4626.05
602.403808594,4631.7
602.683532715,4662.225
602.963256836,4653.025
603.242919922,4690.85
603.522583008,4731.1
603.802246094,4740.675
604.081848145,4697.85
604.36138916,4677.525
604.641052246,4691.175
604.920532227,4686.925
605.200073242,4724.525
605.479614258,4733.4
605.759094238,4754.9
606.038574219,4777.0
606.317932129,4735.6
606.597412109,4724.25
606.87677002,4738.375
607.15612793,4780.2
607.435546875,4794.375
607.714782715,4793.425
607.99407959,4761.525
608.273376465,4753.325
608.552612305,4760.1
608.831848145,4786.35
609.111083984,4799.475
609.390258789,4767.85
609.669433594,4784.525
609.948608398,4814.4
610.227722168,4818.5
610.506713867,4771.275
610.785888672,4779.55
611.064880371,4773.675
611.34387207,4801.4
611.622924805,4832.525
611.901916504,4815.225
612.180847168,4764.825
612.459777832,4753.9
612.738647461,4774.25
613.01751709,4780.775
613.296447754,4722.9
613.575317383,4721.875
613.854064941,4647.95
614.132873535,4584.225
614.411621094,4556.1
614.690368652,4507.625
614.969177246,4466.025
615.247802734,4394.55
615.526489258,4408.85
615.805175781,4293.425
616.08380127,4203.025
616.362365723,4115.45
616.640991211,4088.1
616.919555664,4043.65
617.198059082,4146.975
617.4765625,4382.575
617.755126953,4508.975
618.033569336,4537.55
618.311950684,4521.875
618.590454102,4540.925
618.868774414,4509.625
619.147155762,4518.75
619.425598145,4527.3
619.703857422,4529.425
619.982177734,4535.675
620.260498047,4515.625
620.538757324,4489.525
620.816955566,4469.475
621.095214844,4432.75
621.373413086,4452.6
621.651550293,4493.225
621.929748535,4527.0
622.207824707,4498.125
622.485900879,4519.9
622.764038086,4520.275
623.042053223,4543.875
623.320007324,4560.775
623.598083496,4560.175
623.876037598,4561.575
624.153991699,4581.475
624.432006836,4608.95
624.709838867,4607.45
624.987731934,4603.875
625.265563965,4565.475
625.543395996,4596.675
625.821228027,4664.85
626.098999023,4657.925
626.376831055,4695.125
626.654541016,4712.5
626.932250977,4729.15
627.209960938,4773.675
627.487670898,4790.325
627.765319824,4798.6
628.04296875,4792.5
628.320495605,4795.175
628.598083496,4788.925
628.875671387,4819.725
629.153259277,4860.9
629.430725098,4887.275
629.708251953,4888.95
629.985656738,4899.15
630.263122559,4934.8
630.540588379,4948.425
630.817932129,4982.325
631.095275879,5003.0
631.372680664,5017.025
631.649963379,5060.675
631.927246094,5117.275
632.204589844,5118.1
632.481811523,5167.9
632.759033203,5236.15
633.036254883,5263.275
633.313415527,5328.6
633.590576172,5367.375
633.867736816,5446.15
634.144836426,5496.525
634.421875,5533.9
634.698913574,5608.475
634.976013184,5631.925
635.252990723,5682.425
635.529968262,5703.05
635.807006836,5764.475
636.08392334,5756.8
636.360839844,5674.875
636.637756348,5588.675
636.914611816,5569.975
637.191467285,5527.2
637.468261719,5606.75
637.745056152,5566.25
638.021789551,5572.875
638.298583984,5582.625
638.575317383,5631.225
638.851989746,5596.025
639.12878418,5604.725
639.405395508,5583.6
639.682006836,5603.475
639.958618164,5601.475
640.235229492,5596.325
640.511779785,5634.675
640.788330078,5620.375
641.064880371,5610.2
641.341308594,5584.075
641.617797852,5588.375
641.894226074,5588.55
642.170654297,5591.125
642.44708252,5572.325
642.723388672,5566.4
642.999755859,5541.375
643.276123047,5563.475
643.552429199,5523.825
643.828674316,5524.725
644.104919434,5495.475
644.381164551,5493.325
644.657348633,5509.025
644.933532715,5457.2
645.209716797,5447.5
645.485839844,5447.325
645.761901855,5450.5
646.038024902,5405.95
646.314086914,5419.375
646.590087891,5405.0
646.866149902,5447.4
647.142150879,5389.725
647.41809082,5381.65
647.694030762,5372.3
647.969970703,5356.15
648.245788574,5391.5
648.521728516,5344.6
648.797546387,5344.3
649.073303223,5349.8
649.349182129,5330.1
649.624938965,5319.125
649.900634766,5318.6
650.176391602,5294.35
650.452087402,5282.0
650.727783203,5280.85
651.003479004,5269.025
651.279052734,5277.925
651.554626465,5245.1
651.83026123,5221.35
652.105773926,5231.15
652.381286621,5204.8
652.656860352,5216.15
652.932312012,5206.45
653.207763672,5218.55
653.483215332,5212.45
653.758605957,5216.4
654.033935547,5189.975
654.309326172,5157.85
654.584716797,5187.7
654.859985352,5156.9
655.135253906,5190.85
655.410583496,5213.3
655.685791016,5998.775
655.9609375,9378.5
656.236206055,9138.65
656.511291504,6022.775
656.786437988,5280.45
657.061645508,5201.925
657.336669922,5175.125
657.611694336,5184.95
657.886779785,5195.825
658.161804199,5224.625
658.436828613,5154.95
658.711791992,5166.8
658.986755371,5175.5
659.261657715,5161.0
659.536621094,5173.2
659.811401367,5147.7
660.086303711,5174.475
660.36114502,5152.5
660.635864258,5154.15
660.910644531,5176.875
661.185424805,5150.95
661.460205078,5159.65
661.734863281,5159.225
662.009521484,5138.05
662.284179688,5145.45
662.558776855,5149.95
662.833435059,5164.55
663.108032227,5176.775
663.382568359,5156.6
663.657043457,5177.7
663.93157959,5172.2
664.206054688,5149.9
664.48046875,5176.6
664.755004883,5187.425
665.02935791,5165.875
665.303710938,5194.75
665.578125,5215.9
665.852416992,5202.0
666.126708984,5196.325
666.401062012,5197.7
666.675292969,5221.5
666.949462891,5199.8
667.223754883,5207.0
667.497924805,5209.65
667.772094727,5211.6
668.046264648,5198.1
668.3203125,5227.9
668.594421387,5227.275
668.868469238,5223.7
669.14251709,5228.975
669.416503906,5224.8
669.690551758,5232.0
669.964477539,5215.475
670.23840332,5216.1
670.512329102,5200.05
670.786254883,5180.075
671.060058594,5231.675
671.333984375,5207.2
671.607788086,5205.575
671.881530762,5212.475
672.155334473,5229.375
672.429077148,5224.45
672.702758789,5243.45
672.97644043,5185.825
673.25012207,5200.9
673.523742676,5197.7
673.797302246,5202.0
674.070922852,5249.5
674.344482422,5217.9
674.618041992,5229.475
674.891601562,5228.05
675.165100098,5215.625
675.438476562,5209.925
675.711975098,5212.25
675.985412598,5187.45
676.258789062,5176.65
676.532165527,5192.25
676.805480957,5182.0
677.078796387,5190.125
677.352111816,5211.1
677.625366211,5176.85
677.898620605,5179.35
678.171875,5194.225
678.445007324,5171.475
678.718200684,5195.575
678.991394043,5170.45
679.264404297,5189.4
679.537536621,5200.5
679.81060791,5202.675
680.083679199,5212.25
680.356689453,5194.55
680.629699707,5175.275
680.902648926,5147.85
681.175598145,5205.575
681.448547363,5203.9
681.721435547,5167.05
681.99420166,5163.525
682.267150879,5152.225
682.539916992,5182.85
682.812744141,5170.75
683.085510254,5167.325
683.358215332,5170.45
683.63092041,5158.0
683.903625488,5161.175
684.176330566,5142.075
684.448913574,5117.025
684.721557617,5095.175
684.99420166,5162.375
685.266662598,5127.625
685.539245605,5128.325
685.811767578,5135.975
686.084289551,5131.9
686.356689453,5135.55
686.629150391,5155.5
686.901550293,5148.1
687.17401123,5153.425
687.446350098,5180.525
687.718688965,5169.85
687.990966797,5220.1
688.263305664,5205.125
688.535522461,5175.95
688.807739258,5186.775
689.079956055,5180.8
689.352172852,5199.45
689.624328613,5204.8
689.896484375,5209.65
690.168518066,5193.775
690.440612793,5212.325
690.71270752,5221.05
690.984741211,5228.55
691.256713867,5230.75
691.528747559,5199.8
691.800720215,5220.95
692.072631836,5221.425
692.344543457,5238.075
692.616394043,5245.175
692.888244629,5249.25
693.160095215,5262.625
693.431945801,5273.775
693.703674316,5236.8
693.975463867,5233.975
694.247131348,5260.85
694.518859863,5244.25
694.790588379,5276.025
695.062255859,5264.575
695.33380127,5230.6
695.60546875,5260.975
695.87701416,5264.3
696.148498535,5277.625
696.42010498,5293.175
696.691589355,5304.95
696.96307373,5310.525
697.234558105,5314.075
697.50592041,5316.6
697.777282715,5320.2
698.048706055,5327.025
698.320068359,5340.625
698.591308594,5325.225
698.862670898,5303.425
699.133972168,5323.6
699.405151367,5319.35
699.676391602,5366.5
699.947570801,5347.5
700.21875,5337.675
700.489868164,5355.2
700.761047363,5346.8
701.032104492,5388.175
701.303100586,5348.8
701.57421875,5391.4
701.845214844,5356.075
702.116149902,5380.625
702.387207031,5391.35
702.65814209,5383.05
702.928955078,5410.55
703.199951172,5357.05
703.47076416,5374.25
703.741577148,5361.025
704.012451172,5381.8
704.28314209,5382.525
704.553955078,5379.775
704.824707031,5394.05
705.095397949,5418.125
705.366027832,5410.825
705.63671875,5410.525
705.907348633,5392.4
706.17791748,5391.325
706.448486328,5427.2
706.719055176,5442.0
706.989562988,5412.05
707.260131836,5452.0
707.530517578,5456.75
707.800964355,5467.4
708.071411133,5438.175
708.341796875,5456.6
708.612182617,5441.925
708.882446289,5438.475
709.152893066,5431.65
709.423156738,5465.05
709.693359375,5427.275
709.963623047,5468.2
710.233825684,5482.375
710.503967285,5474.6
710.774169922,5470.6
711.044311523,5456.55
711.31439209,5452.25
711.584533691,5491.825
711.854553223,5467.025
712.124572754,5493.45
712.39465332,5480.175
712.664611816,5513.2
712.934509277,5548.225
713.204467773,5522.15
713.474365234,5539.9
713.74420166,5520.8
714.014099121,5504.075
714.283874512,5525.75
714.553710938,5539.575
714.823486328,5548.0
715.093200684,5517.9
715.362915039,5539.325
715.632629395,5521.55
715.902282715,5513.5
716.171875,5534.425
716.441589355,5525.975
716.711181641,5513.85
716.980712891,5523.075
717.250244141,5522.95
717.519775391,5556.825
717.78918457,5551.225
718.058654785,5590.55
718.328125,5604.15
718.597473145,5576.525
718.866882324,5590.025
719.136230469,5582.975
719.405578613,5611.55
719.674865723,5615.625
719.944152832,5595.925
720.213439941,5602.35
720.48260498,5645.725
720.75177002,5647.675
721.020996094,5648.75
721.290100098,5642.8
721.559204102,5625.15
721.828308105,5658.6
722.097351074,5623.6
722.366455078,5613.925
722.635437012,5647.4
722.904418945,5620.15
723.173400879,5664.275
723.442321777,5664.725
723.711181641,5646.25
723.980102539,5678.55
724.248962402,5671.775
724.51776123,5638.4
724.786560059,5688.275
725.055358887,5694.275
725.324035645,5700.575
725.592834473,5702.0
725.86151123,5693.75
726.130187988,5719.85
726.398803711,5721.7
726.667419434,5728.2
726.935974121,5714.7
727.204528809,5705.925
727.473083496,5713.175
727.741638184,5696.75
728.010070801,5677.35
728.278564453,5662.175
728.546936035,5703.15
728.815368652,5632.9
729.08380127,5596.05
729.352111816,5591.325
729.620361328,5555.15
729.88873291,5607.175
730.156982422,5618.4
730.425231934,5644.9
730.693481445,5639.925
730.961669922,5685.7
731.229797363,5730.775
731.49798584,5736.525
731.766113281,5791.425
732.034118652,5811.875
732.302246094,5853.55
732.570251465,5880.6
732.838256836,5909.75
733.106262207,6007.925
733.374145508,6007.875
733.642089844,6039.85
733.909973145,6059.225
734.177856445,6136.6
734.445678711,6214.05
734.713562012,6289.6
734.981323242,6284.725
735.249084473,6306.975
735.516845703,6416.05
735.784545898,6453.925
736.052185059,6503.925
736.319885254,6596.9
736.587524414,6610.45
736.855102539,6659.4
737.122619629,6754.925
737.390197754,6824.55
737.657714844,6905.875
737.925170898,6933.85
738.192749023,7012.575
738.460144043,7078.425
738.727539062,7135.075
738.994995117,7207.775
739.262329102,7260.575
739.529663086,7341.05
739.79699707,7346.6
740.06427002,7396.025
740.331481934,7502.0
740.598754883,7529.975
740.865905762,7567.925
741.133056641,7685.675
741.40032959,7704.9
741.667358398,7764.95
741.934448242,7802.5
742.201599121,7837.0
742.468566895,7916.775
742.735534668,7974.975
743.002563477,7990.575
743.26953125,7964.65
743.536437988,8064.475
743.803405762,8147.025
744.0703125,8144.825
744.337097168,8194.3
744.604003906,8152.925
744.870727539,8226.05
745.137512207,8268.5
745.40423584,8286.475
745.670959473,8273.075
745.93762207,8278.25
746.204284668,8345.65
746.470947266,8392.275
746.737548828,8358.7
747.004089355,8393.775
747.270751953,8422.725
747.53717041,8470.425
747.803710938,8463.175
748.070251465,8450.15
748.336608887,8458.275
748.603027344,8422.125
748.869445801,8447.425
749.135803223,8479.375
749.402099609,8488.9
749.668457031,8533.75
749.934753418,8497.675
750.20098877,8490.825
750.467224121,8534.6
750.733459473,8514.425
750.999572754,8493.9
751.26574707,8464.15
751.531860352,8508.825
751.797912598,8483.95
752.064025879,8429.475
752.330078125,8453.0
752.596069336,8457.85
752.862060547,8426.325
753.127990723,8450.15
753.393920898,8455.425
753.659912109,8453.05
753.925720215,8502.125
754.19152832,8466.85
754.457397461,8453.15
754.723144531,8445.975
754.988952637,8408.35
755.254699707,8452.175
755.520385742,8443.975
755.786071777,8467.95
756.051696777,8460.525
756.317382812,8418.2
756.582946777,8413.4
756.848510742,8444.125
757.114074707,8385.55
757.379577637,8400.4
757.645080566,8454.7
757.910583496,8421.225
758.175964355,8386.025
758.441345215,8359.35
758.706848145,8282.3
758.972106934,8302.05
759.237426758,8341.475
759.502807617,8383.425
759.768005371,8370.975
760.03326416,8339.125
760.298522949,8334.15
760.563659668,8363.5
760.828857422,8354.4
761.093994141,8368.425
761.359130859,8347.55
761.624206543,8334.2
761.889282227,8296.4
762.15423584,8297.025
762.419250488,8289.2
762.684265137,8266.45
762.949157715,8268.4
763.214050293,8281.95
763.479003906,8302.075
763.743835449,8295.675
764.008666992,8282.375
764.2734375,8284.7
764.538208008,8311.525
764.802978516,8342.775
765.067687988,8323.125
765.332397461,8324.175
765.597045898,8288.475
765.861694336,8268.4
766.126342773,8253.325
766.390930176,8270.275
766.655395508,8225.625
766.920043945,8212.775
767.184509277,8233.35
767.448974609,8300.75
767.713439941,8257.225
767.977783203,8253.475
768.2421875,8301.15
768.506591797,8265.3
768.770874023,8335.675
769.03515625,8290.45
769.299499512,8297.125
769.563720703,8284.125
769.827941895,8243.825
770.092163086,8263.025
770.356323242,8260.5
770.620483398,8276.6
770.88458252,8290.075
771.148681641,8318.35
771.412719727,8273.7
771.676757812,8300.625
771.940734863,8252.85
772.204711914,8279.35
772.468688965,8273.225
772.73260498,8271.55
772.996459961,8330.125
773.260314941,7385.225
773.524169922,962.7
773.787963867,147.475
774.051696777,123.3
774.315551758,120.775
774.579223633,122.45
774.842895508,121.9
775.106567383,124.125
775.370239258,120.15
775.633789062,124.075
775.897399902,126.2
776.160949707,117.875
776.424499512,122.925
776.687988281,123.35
776.951477051,126.45
777.214904785,119.75
777.47833252,121.35
