191.299911499,99.7
191.603515625,101.45
191.907119751,101.225
192.210693359,103.225
192.514251709,101.8
192.817810059,102.9
193.121368408,102.5
193.42489624,104.2
193.728408813,99.2
194.031936646,100.475
194.33543396,94.75
194.638916016,111.5
194.94241333,95.225
195.245880127,96.95
195.549331665,97.7
195.852767944,102.225
196.156204224,177.75
196.459625244,169.5
196.763015747,169.275
197.066436768,174.4
197.369812012,164.425
197.673187256,174.6
197.9765625,164.525
198.279922485,166.875
198.583251953,162.6
198.886581421,169.925
199.18989563,178.4
199.493209839,172.125
199.79649353,160.825
200.09979248,171.95
200.403076172,165.4
200.706314087,169.625
201.009567261,167.65
201.312820435,172.3
201.616027832,159.7
201.919235229,161.35
202.222457886,164.5
202.525634766,166.25
202.828826904,160.15
203.132003784,158.75
203.435150146,162.4
203.738296509,160.8
204.041412354,163.075
204.344558716,168.125
204.647659302,166.475
204.950759888,166.55
205.253845215,165.05
205.556930542,160.3
205.859985352,161.675
206.163024902,166.975
206.466079712,163.35
206.769104004,171.2
207.072113037,164.225
207.375137329,164.4
207.678131104,162.95
207.981109619,170.45
208.284088135,160.475
208.587036133,168.6
208.889984131,165.55
209.19291687,165.45
209.495849609,167.85
209.798751831,169.75
210.101654053,164.2
210.404556274,167.6
210.707427979,165.925
211.010269165,174.825
211.31312561,170.075
211.615982056,169.425
211.918807983,169.225
212.221618652,165.025
212.524429321,163.425
212.827224731,174.525
213.130004883,169.8
213.432769775,168.975
213.735534668,168.15
214.038269043,170.9
214.341003418,168.25
214.643737793,171.525
214.946456909,174.575
215.249145508,171.35
215.551834106,176.55
215.854507446,175.275
216.157165527,173.9
216.45980835,172.6
216.762451172,176.65
217.065078735,178.25
217.36769104,174.075
217.670303345,177.025
217.972885132,179.425
218.275466919,181.05
218.578048706,175.9
218.880599976,186.35
219.183120728,180.75
219.485656738,184.55
219.788192749,194.325
220.090682983,204.2
220.393188477,214.775
220.695663452,237.65
220.998138428,250.475
221.300582886,278.625
221.603042603,288.225
221.905487061,317.05
222.207901001,353.575
222.510299683,383.55
222.812728882,423.4
223.115097046,458.25
223.41746521,504.475
223.719848633,533.65
224.022171021,564.425
224.324508667,598.725
224.626846313,646.725
224.929168701,676.825
225.231460571,723.375
225.533737183,749.975
225.836013794,790.0
226.138290405,812.85
226.440536499,824.625
226.742767334,867.05
227.044998169,882.925
227.347213745,918.925
227.649429321,927.275
227.951629639,945.4
228.253799438,957.775
228.555953979,977.675
228.858123779,984.35
229.160263062,986.675
229.462371826,991.7
229.764511108,1014.675
230.066619873,1000.325
230.36869812,1002.9
230.670776367,1004.525
230.972854614,1023.65
231.274902344,1024.375
231.576950073,1029.4
231.878967285,1025.6
232.180999756,1042.8
232.48298645,1039.525
232.784988403,1047.875
233.086975098,1057.25
233.388946533,1057.8
233.69090271,1056.275
233.992858887,1066.0
234.294769287,1047.475
234.596694946,1065.825
234.898605347,1074.9
235.200500488,1058.05
235.502380371,1049.5
235.804244995,1046.35
236.106109619,1049.425
236.407958984,1050.275
236.709777832,1037.25
237.011581421,1042.5
237.313400269,1020.95
237.615203857,1021.075
237.916976929,1026.825
238.21875,1016.525
238.520507812,1022.35
238.822250366,1013.825
239.12399292,1002.525
239.425704956,1016.875
239.727401733,1000.95
240.02911377,998.625
240.330780029,998.55
240.632446289,995.0
240.93409729,995.125
241.23576355,996.55
241.537384033,998.65
241.839004517,999.875
242.140594482,985.825
242.442199707,1008.1
242.743774414,1004.775
243.045333862,1004.275
243.346923828,1011.25
243.648452759,1003.575
243.949966431,1009.325
244.251495361,1024.775
244.552993774,1017.325
244.854492188,1024.675
245.155975342,1023.275
245.457443237,1038.25
245.758880615,1026.0
246.060333252,1027.675
246.36177063,1031.525
246.66317749,1031.8
246.964569092,1038.875
247.265945435,1047.4
247.567337036,1053.15
247.86869812,1067.85
248.170059204,1069.7
248.471389771,1082.3
248.772705078,1097.275
249.074035645,1110.75
249.375335693,1116.8
249.676620483,1146.05
249.977890015,1141.35
250.279159546,1180.35
250.58039856,1206.15
250.881637573,1225.775
251.182876587,1246.0
251.484069824,1277.45
251.785263062,1308.1
252.086456299,1344.675
252.387619019,1359.975
252.688781738,1395.05
252.989929199,1434.575
253.291061401,1469.2
253.592178345,1508.95
253.893280029,1549.625
254.194366455,1586.05
254.49546814,1609.025
254.796524048,1638.3
255.097579956,1696.55
255.398620605,1722.975
255.699645996,1750.65
256.000640869,1772.5
256.30166626,1810.175
256.602661133,1861.65
256.903656006,1878.05
257.204589844,1923.5
257.505523682,1928.625
257.80645752,1981.3
258.107391357,2007.65
258.408294678,2033.775
258.709228516,2054.375
259.010070801,2077.125
259.310943604,2104.7
259.611846924,2125.2
259.912658691,2143.125
260.213500977,2150.45
260.514343262,2166.55
260.815124512,2187.6
261.115936279,2196.075
261.416717529,2223.975
261.717468262,2248.45
262.018218994,2252.9
262.318969727,2294.25
262.619689941,2321.4
262.920410156,2387.3
263.221130371,2427.65
263.521789551,2474.0
263.822479248,2517.075
264.123138428,2575.325
264.42376709,2631.0
264.72442627,2654.05
265.025054932,2683.65
265.325622559,2714.875
265.626251221,2735.225
265.926818848,2770.925
266.227386475,2779.675
266.527954102,2787.4
266.828460693,2831.35
267.12902832,2803.05
267.429534912,2816.825
267.730010986,2824.325
268.030517578,2828.825
268.330993652,2846.95
268.631439209,2847.025
268.931915283,2876.875
269.232299805,2897.4
269.532745361,2889.45
269.8331604,2893.5
270.133544922,2910.0
270.433929443,2932.175
270.734313965,2945.775
271.034637451,2973.8
271.334991455,2999.575
271.635314941,3059.725
271.935638428,3063.825
272.235931396,3111.775
272.536254883,3139.225
272.836486816,3217.45
273.136749268,3272.425
273.437011719,3345.375
273.737213135,3398.925
274.037445068,3485.525
274.337677002,3567.225
274.6378479,3637.925
274.938049316,3748.925
275.238220215,3820.95
275.538360596,3933.2
275.838500977,3991.35
276.138641357,4110.025
276.438751221,4162.075
276.738830566,4244.05
277.03894043,4312.525
277.338989258,4424.075
277.639038086,4498.25
277.939056396,4554.05
278.239105225,4621.9
278.539093018,4693.125
278.839141846,4768.8
279.139129639,4813.05
279.439086914,4911.425
279.739044189,4976.65
280.039001465,5059.45
280.338928223,5121.375
280.63885498,5167.65
280.938781738,5229.0
281.238647461,5273.15
281.538513184,5305.75
281.838409424,5368.325
282.138244629,5432.975
282.438079834,5461.125
282.737945557,5493.325
283.037719727,5545.525
283.337524414,5600.7
283.637298584,5619.45
283.937072754,5658.0
284.236816406,5700.3
284.536560059,5694.675
284.836303711,5736.675
285.136016846,5817.125
285.43572998,5810.2
285.735412598,5848.4
286.035064697,5883.05
286.334747314,5914.0
286.634368896,5956.45
286.933990479,5906.6
287.233642578,5919.15
287.533203125,5915.6
287.832824707,5892.975
288.132385254,5858.6
288.431945801,5771.025
288.731506348,5690.875
289.031036377,5575.875
289.330566406,5503.95
289.630065918,5526.95
289.92956543,5514.025
290.229034424,5597.875
290.528503418,5750.725
290.827941895,5893.4
291.127380371,6009.425
291.42678833,6104.625
291.726226807,6239.275
292.025604248,6276.775
292.324981689,6319.875
292.624359131,6343.975
292.923736572,6361.95
293.223052979,6409.05
293.522369385,6396.1
293.821685791,6379.0
294.12097168,6383.2
294.420257568,6377.125
294.719543457,6353.6
295.018768311,6356.375
295.318023682,6312.7
295.617248535,6279.275
295.916442871,6260.325
296.215667725,6230.275
296.514862061,6120.45
296.813995361,5937.175
297.11315918,5786.225
297.412322998,5702.525
297.711425781,5669.8
298.010559082,5824.45
298.309631348,5986.775
298.608734131,6163.2
298.907806396,6333.7
299.206848145,6447.95
299.505889893,6503.625
299.804901123,6578.675
300.103912354,6677.475
300.402954102,6741.85
300.701904297,6789.2
301.00088501,6848.225
301.299835205,6941.3
301.5987854,6934.975
301.897735596,7031.675
302.196624756,7075.125
302.495513916,7121.1
302.794403076,7166.625
303.093292236,7220.825
303.392120361,7281.5
303.690979004,7334.15
303.989837646,7386.525
304.288604736,7439.625
304.587402344,7428.075
304.886199951,7508.4
305.184967041,7497.9
305.483734131,7564.5
305.782501221,7563.375
306.081176758,7579.925
306.37991333,7629.125
306.678619385,7623.675
306.977294922,7664.725
307.275970459,7683.625
307.574645996,7692.85
307.873260498,7678.85
308.171875,7673.725
308.470489502,7685.2
308.769104004,7605.025
309.067687988,7628.325
309.366241455,7620.15
309.664794922,7590.7
309.963348389,7607.85
310.261871338,7596.725
310.560394287,7610.5
310.858856201,7627.475
311.157348633,7664.375
311.455810547,7656.575
311.754272461,7680.175
312.052703857,7771.525
312.351135254,7771.125
312.649536133,7753.425
312.947937012,7772.525
313.246307373,7775.1
313.544647217,7805.95
313.843017578,7750.45
314.141387939,7727.125
314.439697266,7750.075
314.738006592,7678.2
315.036315918,7635.3
315.334564209,7568.025
315.6328125,7524.5
315.931091309,7455.75
316.229309082,7355.925
316.527526855,7267.725
316.825744629,7207.125
317.123901367,7119.5
317.422088623,7115.275
317.720245361,7108.55
318.0184021,7121.675
318.316497803,7147.15
318.614654541,7185.1
318.912750244,7269.7
319.21081543,7253.35
319.50894165,7284.0
319.806945801,7278.725
320.104980469,7270.275
320.403045654,7286.275
320.701049805,7244.225
320.999023438,7228.375
321.297027588,7200.15
321.595001221,7187.875
321.892913818,7169.5
322.190887451,7102.85
322.488830566,7055.2
322.786712646,7044.4
323.084625244,6947.275
323.382507324,6916.275
323.680358887,6855.225
323.978210449,6810.65
324.276062012,6754.975
324.573852539,6705.125
324.871643066,6649.325
325.169464111,6613.3
325.467224121,6547.075
325.764984131,6513.7
326.062744141,6443.65
326.360473633,6380.825
326.658203125,6317.025
326.955871582,6253.775
327.253570557,6212.8
327.551239014,6153.45
327.848907471,6084.375
328.146514893,6024.85
328.444152832,5979.275
328.741790771,5962.8
329.039367676,5871.675
329.336914062,5843.5
329.634521484,5791.325
329.932067871,5758.925
330.229553223,5677.875
330.527160645,5646.875
330.824615479,5608.9
331.12210083,5553.75
331.419586182,5438.625
331.717041016,5405.425
332.014465332,5322.2
332.311920166,5323.575
332.609313965,5254.2
332.906707764,5250.5
333.204101562,5243.675
333.501495361,5249.275
333.798828125,5277.225
334.096160889,5301.325
334.39352417,5372.4
334.690795898,5393.55
334.988098145,5443.275
335.285400391,5498.075
335.582641602,5495.875
335.879882812,5558.375
336.177124023,5538.775
336.474334717,5614.15
336.77154541,5612.825
337.068725586,5625.95
337.365905762,5628.775
337.66305542,5636.025
337.960205078,5658.85
338.257324219,5680.875
338.554443359,5692.55
338.8515625,5717.0
339.148590088,5690.675
339.445648193,5713.7
339.742736816,5693.05
340.039764404,5655.875
340.336761475,5643.025
340.63381958,5604.2
340.930755615,5565.125
341.227722168,5505.925
341.524688721,5423.15
341.821624756,5404.475
342.118560791,5429.775
342.415496826,5489.95
342.712402344,5602.4
343.009246826,5723.275
343.306121826,5838.4
343.602966309,5896.975
343.899810791,5947.675
344.196624756,6031.1
344.493438721,6058.75
344.79019165,6111.0
345.086975098,6137.575
345.383758545,6194.0
345.680480957,6165.0
345.977203369,6159.9
346.273956299,6228.0
346.570617676,6196.65
346.86730957,6223.775
347.163970947,6201.2
347.460601807,6244.25
347.757232666,6271.4
348.053894043,6248.05
348.350463867,6195.85
348.647064209,6167.55
348.943634033,6159.05
349.24017334,6172.475
349.536712646,6122.15
349.833251953,6137.25
350.129760742,6108.175
350.426208496,6104.15
350.722747803,6064.8
351.019195557,6084.775
351.315612793,6026.575
351.612060547,5985.775
351.908508301,5943.35
352.204864502,5902.85
352.501281738,5843.125
352.797637939,5800.15
353.093963623,5731.5
353.390319824,5673.225
353.686645508,5593.85
353.982940674,5551.6
354.27923584,5515.625
354.575531006,5462.6
354.871765137,5454.55
355.167999268,5417.75
355.464233398,5448.95
355.760437012,5445.775
356.056640625,5430.3
356.352813721,5448.25
356.648956299,5453.5
356.945129395,5483.65
357.241271973,5455.55
357.537384033,5484.95
357.833496094,5445.075
358.129577637,5402.675
358.425628662,5389.775
358.721679688,5378.375
359.017730713,5365.3
359.313720703,5291.95
359.609710693,5275.75
359.905761719,5244.6
360.201721191,5210.05
360.497650146,5153.6
360.793609619,5143.95
361.089538574,5077.9
361.385437012,4990.95
361.681365967,4964.375
361.977233887,4932.0
362.273071289,4878.725
362.568908691,4790.7
362.864746094,4665.45
363.160552979,4556.625
363.456359863,4406.2
363.752166748,4295.4
364.047912598,4218.0
364.343658447,4185.675
364.639434814,4210.775
364.935119629,4237.775
365.230834961,4313.9
365.526550293,4325.025
365.822174072,4336.425
366.117858887,4361.925
366.413482666,4379.4
366.709075928,4421.65
367.004730225,4322.95
367.300292969,4317.7
367.595855713,4380.6
367.891448975,4272.05
368.186981201,4178.925
368.482513428,4138.7
368.778015137,4127.425
369.073547363,4096.525
369.36895752,4116.35
369.664428711,4017.3
369.95993042,3940.25
370.255310059,3885.95
370.550720215,3869.525
370.846160889,3837.375
371.14151001,3795.975
371.436859131,3783.475
371.73223877,3754.575
372.027557373,3726.5
372.322875977,3680.15
372.618164062,3662.325
372.913482666,3633.825
373.208709717,3613.925
373.503967285,3545.725
373.799194336,3527.75
374.094421387,3521.2
374.389648438,3486.4
374.684844971,3486.525
374.979980469,3524.35
375.275146484,3533.475
375.570281982,3560.8
375.865386963,3572.8
376.160522461,3518.425
376.455596924,3525.825
376.750640869,3607.5
377.045715332,3607.125
377.340759277,3636.275
377.635772705,3694.225
377.93081665,3737.1
378.225769043,3802.1
378.520751953,3840.325
378.815734863,3792.525
379.110656738,3927.2
379.405548096,4106.075
379.700500488,3975.975
379.995391846,3783.2
380.290252686,3822.275
380.585083008,3914.275
380.879974365,3938.525
381.17477417,3871.625
381.469543457,3832.9
381.764404297,3807.925
382.059143066,3853.275
382.353912354,3928.45
382.648651123,3991.75
382.943389893,3975.375
383.238067627,3817.35
383.532775879,3829.2
383.827484131,3794.95
384.12210083,3771.875
384.416778564,3717.675
384.711425781,3639.525
385.006011963,3679.25
385.300628662,3651.175
385.595184326,3731.25
385.88973999,3820.45
386.184295654,3901.1
386.478820801,3966.25
386.77331543,4061.2
387.067840576,4167.75
387.362335205,4245.375
387.656768799,4278.7
387.951202393,4347.375
388.245635986,4386.7
388.540039062,4465.3
388.834472656,4540.6
389.128875732,4440.625
389.423187256,4238.15
389.717559814,4181.6
390.011871338,4301.95
390.306182861,4307.525
390.600463867,4317.775
390.894775391,4389.925
391.189025879,4414.975
391.48324585,4417.575
391.777526855,4456.3
392.071685791,4643.725
392.365875244,4740.4
392.660064697,4786.675
392.95425415,5099.45
393.248382568,5076.0
393.542510986,4655.45
393.836608887,4495.525
394.130706787,4499.65
394.424804688,4444.325
394.71887207,4555.625
395.012878418,4553.15
395.306915283,4437.625
395.600921631,4358.825
395.894927979,4347.55
396.188903809,4382.25
396.482879639,4380.825
396.776794434,4590.325
397.070739746,4550.175
397.364654541,4571.975
397.658538818,4932.0
397.952423096,4942.9
398.246307373,4902.975
398.540100098,5391.3
398.833953857,5287.425
399.127746582,4845.025
399.421508789,4843.675
399.715301514,4792.2
400.009063721,4725.925
400.30279541,4556.125
400.596496582,4496.8
400.890258789,4632.325
401.183929443,4722.25
401.47756958,4618.25
401.771240234,4420.75
402.064880371,4422.2
402.35848999,4490.95
402.652130127,4368.125
402.945678711,4447.8
403.239257812,4389.325
403.532775879,4339.325
403.82635498,4385.1
404.119842529,4320.475
404.413360596,4293.625
404.706848145,4350.5
405.000274658,4299.6
405.293762207,4387.925
405.587188721,4422.95
405.880584717,4281.225
406.17401123,4100.375
406.467407227,3915.85
406.760742188,3936.6
407.054107666,3960.8
407.347442627,3891.8
407.640716553,3904.325
407.934051514,3920.95
408.227325439,3988.375
408.520568848,4190.15
408.813842773,4268.6
409.107086182,4092.025
409.400238037,4045.25
409.693450928,3989.525
409.986633301,4096.5
410.279754639,4018.2
410.572875977,3745.7
410.86605835,3692.25
411.159118652,3704.5
411.452209473,3713.825
411.745330811,3573.7
412.038360596,3516.9
412.331390381,3551.025
412.624420166,3582.2
412.917388916,3488.0
413.210388184,3330.125
413.503387451,3322.375
413.796295166,3213.75
414.089233398,3057.525
414.382141113,2990.6
414.675048828,2968.275
414.967926025,3009.125
415.260803223,2967.9
415.55368042,2983.75
415.846466064,2945.05
416.139282227,3025.875
416.432098389,3127.575
416.724853516,3124.5
417.017608643,3070.825
417.31036377,3091.25
417.603088379,3197.95
417.895782471,3163.675
418.188476562,3151.05
418.481140137,3195.05
418.773803711,3252.85
419.066436768,3234.35
419.359039307,3310.4
419.651641846,3304.5
419.944244385,3287.075
420.236816406,3269.1
420.529327393,3452.3
420.821899414,3515.325
421.114379883,3450.925
421.406860352,3697.35
421.699371338,3892.9
421.991821289,3845.525
422.284240723,3688.675
422.576721191,3540.175
422.869110107,3434.725
423.161468506,3394.0
423.453857422,3425.75
423.74621582,3303.425
424.038543701,3199.95
424.330871582,3171.5
424.623168945,3102.85
424.915435791,3224.2
425.207702637,3181.925
425.499969482,3145.9
425.792205811,3071.55
426.084411621,2864.0
426.376617432,2945.675
426.668762207,2991.9
426.9609375,2886.05
427.253082275,2990.95
427.545196533,3363.525
427.837310791,3111.8
428.129425049,2844.825
428.421447754,3038.45
428.713531494,3056.625
429.005554199,3036.825
429.297576904,3051.1
429.589599609,3430.325
429.881561279,3722.325
430.173522949,3533.0
430.465484619,3486.7
430.757415771,3542.9
431.049316406,3332.225
431.341186523,3127.9
431.633117676,3035.825
431.924957275,2764.6
432.21673584,2668.75
432.508636475,2793.275
432.800415039,2825.075
433.092163086,2701.7
433.383972168,2689.55
433.675689697,3346.025
433.967437744,3767.175
434.259155273,2912.85
434.550872803,2642.375
434.842498779,2680.975
435.134185791,2810.075
435.425842285,2826.45
435.717437744,2736.95
436.009063721,2574.35
436.30065918,2700.75
436.592224121,3008.1
436.883758545,2830.025
437.175323486,2583.325
437.466827393,2582.725
437.758331299,2586.7
438.049804688,2599.575
438.341247559,2673.075
438.63269043,2751.25
438.924163818,2729.15
439.215515137,2693.625
439.50692749,2599.6
439.798309326,2602.475
440.089660645,2617.95
440.380981445,2536.175
440.672332764,2522.25
440.963623047,2764.2
441.254882812,3201.45
441.546173096,3351.675
441.837402344,3116.475
442.128631592,2948.175
442.41986084,2947.925
442.711029053,2809.25
443.002197266,2887.9
443.293365479,3041.975
443.584503174,3160.925
443.875610352,3138.275
444.166717529,2900.925
444.457794189,2953.3
444.748840332,2934.2
445.039916992,2888.1
445.330932617,2981.225
445.621948242,2828.35
445.912963867,2660.3
446.203918457,2868.425
446.494812012,3074.575
446.785827637,2900.325
447.076721191,2746.725
447.367584229,2714.4
447.658447266,2693.525
447.949371338,2743.725
448.24017334,2632.525
448.530975342,2575.775
448.821838379,2720.9
449.112579346,2774.825
449.40335083,2721.825
449.694152832,2732.85
449.984863281,2753.075
450.27557373,2707.675
450.56628418,2738.35
450.856933594,2765.875
451.147583008,2625.475
451.438262939,2532.525
451.728881836,2711.775
452.019470215,2787.75
452.310089111,2599.0
452.600646973,2622.8
452.891174316,2677.525
453.181732178,2509.325
453.472229004,2407.8
453.762695312,2499.425
454.053222656,2531.35
454.343658447,2424.1
454.634063721,2363.125
454.924530029,2507.15
455.214935303,2649.875
455.505279541,2700.1
455.795715332,2582.35
456.086029053,2393.05
456.376312256,2390.45
456.666687012,2418.3
456.956939697,2501.15
457.247192383,2509.85
457.537445068,2567.75
457.827728271,2726.725
458.117919922,2686.95
458.408081055,2611.425
458.698303223,2772.425
458.988433838,2709.475
459.278564453,2548.425
459.568725586,2809.525
459.858825684,2907.95
460.148864746,2612.15
460.438995361,2593.875
460.729034424,2622.75
461.019042969,2641.5
461.309082031,2829.0
461.599060059,2717.675
461.889007568,2301.575
462.179016113,2149.1
462.468933105,2352.625
462.75881958,2455.5
463.048736572,2233.15
463.338592529,2464.35
463.628448486,2786.45
463.918365479,2520.95
464.2081604,2663.375
464.497924805,2636.5
464.787780762,2736.425
465.077514648,3021.7
465.367218018,2687.975
465.657012939,2864.35
465.946685791,3227.35
466.236358643,2876.525
466.526092529,2388.925
466.815734863,2391.5
467.105316162,2318.4
467.394927979,2349.9
467.684570312,2220.325
467.974121094,2294.525
468.263671875,2389.125
468.553222656,2200.9
468.842773438,2107.3
469.132232666,2011.475
469.42175293,2033.0
469.711212158,2011.025
470.000640869,1894.25
470.290100098,1941.35
470.579498291,1990.925
470.868835449,1991.35
471.158294678,1944.425
471.447601318,1927.925
471.736907959,1991.825
472.026275635,2053.175
472.315551758,2046.7
472.604797363,2034.05
472.894104004,2153.275
473.183319092,2247.3
473.47253418,2226.375
473.761779785,2236.125
474.05090332,2164.975
474.340087891,2112.375
474.629241943,2066.225
474.918365479,2215.625
475.207427979,2461.275
475.496551514,2480.35
475.785614014,2245.5
476.074645996,2057.275
476.363708496,2141.175
476.652679443,2282.4
476.941650391,2100.55
477.230682373,1976.4
477.519622803,1978.225
477.808502197,2113.2
478.097412109,2334.175
478.386352539,2303.6
478.675201416,2060.225
478.964050293,1965.775
479.25289917,2141.7
479.541717529,2202.7
479.830474854,2055.425
480.11932373,2356.85
480.408050537,2515.675
480.696777344,2171.9
480.985534668,2063.65
481.274200439,2129.5
481.562866211,2351.4
481.851593018,2380.875
482.140197754,2311.925
482.428833008,2161.8
482.717468262,1993.075
483.006011963,2022.8
483.294586182,2133.275
483.5831604,2175.625
483.871673584,2038.375
484.16015625,2165.3
484.448699951,2386.675
484.7371521,2411.725
485.02557373,2416.275
485.314025879,2168.4
485.602416992,3392.0
485.890777588,12040.975
486.179199219,10698.8
486.467559814,2854.65
486.755859375,2090.775
487.044219971,2425.525
487.332519531,2582.4
487.620758057,2215.825
487.908966064,1987.6
488.197265625,1816.975
488.485473633,1726.325
488.773651123,1824.55
489.061859131,1822.1
489.350006104,1786.575
489.638122559,1711.425
489.926300049,1745.25
490.214355469,1707.675
490.502441406,1664.375
490.790527344,1596.85
491.078552246,1763.35
491.366546631,1767.675
491.654602051,1553.375
491.942565918,1618.525
492.230499268,1649.1
492.518493652,1617.2
492.806396484,1647.65
493.094268799,1575.3
493.382202148,1602.675
493.670074463,1700.55
493.957885742,1566.3
494.245727539,1563.325
494.533508301,1712.275
494.821289062,1608.25
495.109100342,1469.8
495.396850586,1431.475
495.684539795,1392.15
495.972290039,1578.325
496.25994873,1873.05
496.547607422,1885.15
496.835296631,1722.05
497.122894287,1436.05
497.410522461,1374.275
497.6980896,1369.2
497.985687256,1350.475
498.273223877,1438.175
498.560760498,1497.475
498.848266602,1511.625
499.135772705,1484.475
499.423217773,1526.75
499.710693359,1625.525
499.998138428,1556.8
500.285522461,1412.7
500.572937012,1349.25
500.860290527,1398.675
501.147644043,1472.7
501.434997559,1677.525
501.722290039,1551.95
502.00958252,1353.3
502.296875,1585.225
502.584106445,1561.375
502.871337891,1405.65
503.158599854,1480.175
503.445770264,1541.9
503.732910156,1525.825
504.020141602,1364.65
504.307220459,1348.125
504.594329834,1379.85
504.881469727,1317.725
505.168518066,1385.35
505.455535889,1437.8
505.742614746,1329.325
506.029632568,1275.6
506.316589355,1439.925
506.603637695,1507.35
506.890563965,1340.025
507.177459717,1193.225
507.464385986,1123.75
507.751312256,1321.225
508.038146973,1394.275
508.325012207,1267.35
508.611877441,1315.0
508.898681641,1321.925
509.185424805,1189.6
509.472259521,1151.7
509.759002686,1220.525
510.045715332,1252.325
510.332458496,1205.975
510.619140625,1246.325
510.905761719,1186.425
511.192504883,1170.925
511.479095459,1212.125
511.765686035,1170.35
512.052307129,1093.2
512.338928223,1054.25
512.625427246,1097.075
512.91204834,1155.875
513.198486328,1124.425
513.484985352,1104.85
513.77142334,1044.2
514.057922363,1075.85
514.344299316,1070.4
514.63079834,1036.45
514.917175293,1036.325
515.203552246,953.15
515.489868164,925.7
515.776245117,1036.7
516.0625,1061.15
516.348815918,991.975
516.635070801,1020.475
516.921325684,1063.55
517.207580566,1011.9
517.493774414,925.85
517.779968262,944.4
518.066101074,968.375
518.352294922,933.725
518.638366699,941.425
518.924499512,1000.175
519.210632324,1062.475
519.496643066,1035.275
519.782714844,950.275
520.068786621,918.575
520.354736328,891.675
520.640686035,850.6
520.926757812,894.45
521.212646484,959.275
521.498535156,962.2
521.784484863,918.45
522.0703125,853.375
522.356262207,878.65
522.642089844,938.375
522.927856445,936.075
523.213684082,921.45
523.499511719,917.825
523.78527832,955.775
524.070983887,991.3
524.356750488,972.425
524.64239502,944.875
524.928039551,941.175
525.213806152,946.7
525.499389648,939.05
525.784973145,967.35
526.070617676,994.05
526.356140137,973.4
526.641723633,979.45
526.927307129,1036.675
527.212768555,1033.925
527.498291016,1014.45
527.783752441,1017.55
528.069213867,996.5
528.354675293,1028.7
528.640014648,1159.8
528.925476074,1205.575
529.21081543,1151.5
529.496154785,1122.8
529.781555176,1095.6
530.066833496,1106.3
530.352050781,1127.45
530.637390137,1114.45
530.922607422,1114.45
531.207824707,1102.575
531.493041992,1097.625
531.778198242,1157.025
532.063354492,1141.875
532.348571777,1101.2
532.633666992,1113.3
532.918762207,1167.8
533.203857422,1236.025
533.488891602,1274.975
533.773925781,1221.05
534.059020996,1203.025
534.343933105,1230.925
534.628967285,1200.25
534.91394043,1221.25
535.198852539,1238.475
535.483703613,1202.45
535.768676758,1150.05
536.053527832,1165.825
536.338317871,1130.45
536.62322998,1079.95
536.90802002,1053.0
537.192810059,1077.55
537.477539062,1139.775
537.762329102,1179.375
538.047058105,1210.375
538.331726074,1232.55
538.616455078,1226.675
538.901123047,1204.675
539.18572998,1239.675
539.470397949,1245.475
539.755004883,1232.875
540.039550781,1198.95
540.32409668,1170.1
540.608703613,1192.15
540.893188477,1278.2
541.17767334,1290.275
541.462158203,1291.85
541.746643066,1251.4
542.031066895,1297.2
542.315429688,1319.75
542.59979248,1322.2
542.884216309,1307.8
543.168579102,1295.125
543.452941895,1296.05
543.737243652,1350.175
544.021484375,1387.475
544.305725098,1380.025
544.590026855,1357.625
544.874267578,1372.9
545.158447266,1436.25
545.442626953,1360.725
545.726806641,1270.15
546.010925293,1294.3
546.29510498,1324.625
546.579162598,1304.025
546.863220215,1346.525
547.147277832,1403.75
547.431335449,1467.575
547.715332031,1521.75
547.999328613,1615.3
548.283325195,1605.675
548.567260742,1501.45
548.851135254,1467.3
549.135070801,1447.7
549.419006348,1370.375
549.702819824,1439.0
549.986755371,1505.775
550.270507812,1476.65
550.554321289,1515.325
550.83807373,1524.4
551.121826172,1494.875
551.405517578,1502.775
551.689331055,1594.15
551.973022461,1788.65
552.256652832,1834.8
552.540344238,1760.7
552.823974609,1722.525
553.107543945,1718.875
553.391174316,1757.325
553.674743652,1813.95
553.958251953,1815.275
554.241821289,1807.8
554.525268555,1770.05
554.808776855,1759.2
555.092285156,1920.75
555.375671387,1997.475
555.659057617,1972.325
555.942504883,2010.15
556.225891113,2037.375
556.509216309,2006.625
556.792541504,1920.425
557.075866699,1988.025
557.359130859,2035.375
557.64239502,2016.3
557.92565918,2085.7
558.208862305,2073.425
558.49206543,2010.425
558.77532959,2025.9
559.058410645,2064.525
559.341552734,2043.425
559.624694824,2097.825
559.907775879,2163.325
560.190856934,2249.1
560.473937988,2249.875
560.756896973,2266.8
561.039978027,2297.575
561.322937012,2258.0
561.605895996,2252.425
561.88885498,2232.325
562.171813965,2232.25
562.454650879,2221.6
562.737548828,2253.45
563.020446777,2319.225
563.303283691,2334.45
563.58605957,2359.6
563.868896484,2362.875
564.151672363,2413.275
564.434387207,2432.65
564.717163086,2407.575
564.99987793,2434.95
565.282531738,2499.9
565.565185547,2438.95
565.847839355,2444.875
566.130432129,2544.1
566.413085938,2516.075
566.695678711,2511.6
566.978149414,2610.175
567.260681152,2746.075
567.543273926,2799.375
567.825744629,2717.275
568.108154297,2759.1
568.390686035,2870.1
568.673095703,2946.425
568.955505371,2995.625
569.237854004,3019.175
569.520202637,3225.8
569.802490234,3407.2
570.084838867,3388.1
570.367126465,3240.925
570.649414062,3246.05
570.93170166,3539.0
571.213928223,3613.575
571.496154785,3404.3
571.778381348,3602.775
572.06048584,3786.425
572.342590332,3423.05
572.624755859,3148.525
572.906860352,3197.675
573.188903809,3736.925
573.470947266,3953.3
573.752990723,3755.125
574.03503418,3831.35
574.317016602,4172.075
574.598937988,3978.625
574.88092041,3885.2
575.162841797,4027.375
575.444763184,3718.225
575.726623535,3510.075
576.008483887,3555.125
576.290344238,3878.125
576.572143555,4045.675
576.853881836,4084.45
577.135681152,4010.85
577.417419434,4069.6
577.699157715,4786.0
577.980895996,4914.725
578.262573242,4360.8
578.544128418,3990.65
578.825866699,3924.8
579.107421875,3679.75
579.388977051,3823.025
579.670593262,4143.825
579.952148438,4016.45
580.233642578,4113.675
580.515197754,4209.775
580.796691895,3955.2
581.078125,4113.1
581.359619141,5334.55
581.640991211,5406.65
581.922363281,4671.675
582.203796387,4720.5
582.485107422,4433.65
582.766418457,4095.05
583.047790527,3966.075
583.329040527,3876.375
583.610290527,3776.575
583.891540527,3873.0
584.172790527,4139.775
584.453918457,4140.0
584.735107422,4190.1
585.016235352,4559.975
585.297363281,4544.65
585.578552246,4375.625
585.859619141,4318.475
586.140625,4139.85
586.421630859,4029.25
586.702697754,4063.7
586.983642578,4253.65
587.264648438,4385.725
587.545654297,4342.725
587.826477051,4314.3
588.107421875,4153.125
588.388305664,4185.15
588.669189453,4285.7
588.950012207,4141.825
589.230834961,4065.125
589.511657715,4147.075
589.792358398,4229.275
590.073120117,4223.475
590.353881836,4204.45
590.63458252,4229.825
590.915283203,4217.4
591.195922852,4186.2
591.4765625,4246.4
591.757202148,4268.525
592.037780762,4251.35
592.31829834,4260.3
592.598937988,4438.025
592.879394531,4587.425
593.159912109,4510.5
593.440429688,4454.425
593.720825195,4438.775
594.001281738,4441.0
594.281677246,4374.8
594.562072754,4390.125
594.842407227,4494.05
595.122802734,4506.65
595.403137207,4500.825
595.683410645,4477.675
595.963623047,4480.7
596.243896484,4431.3
596.524169922,4454.125
596.804382324,4442.15
597.084533691,4490.675
597.364746094,4516.7
597.644836426,4521.525
597.924987793,4524.775
598.205078125,4524.65
598.485107422,4542.65
598.765197754,4644.2
599.045227051,4703.825
599.325195312,4622.25
599.605224609,4564.15
599.885192871,4620.85
600.165100098,4661.9
600.445007324,4619.575
600.724914551,4629.9
601.004760742,4652.6
601.284667969,4674.35
601.56451416,4639.95
601.844238281,4647.275
602.124084473,4634.2
602.403808594,4656.275
602.683532715,4686.25
602.963256836,4705.8
603.242919922,4733.975
603.522583008,4769.625
603.802246094,4751.175
604.081848145,4744.75
604.36138916,4705.15
604.641052246,4717.525
604.920532227,4710.475
605.200073242,4741.575
605.479614258,4787.7
605.759094238,4805.9
606.038574219,4806.775
606.317932129,4762.25
606.597412109,4757.475
606.87677002,4765.45
607.15612793,4811.85
607.435546875,4824.375
607.714782715,4829.0
607.99407959,4806.975
608.273376465,4778.05
608.552612305,4811.125
608.831848145,4833.775
609.111083984,4824.0
609.390258789,4799.6
609.669433594,4821.375
609.948608398,4867.525
610.227722168,4852.175
610.506713867,4795.475
610.785888672,4810.1
611.064880371,4815.425
611.34387207,4831.825
611.622924805,4865.325
611.901916504,4856.975
612.180847168,4822.5
612.459777832,4812.8
612.738647461,4815.125
613.01751709,4795.375
613.296447754,4756.3
613.575317383,4732.05
613.854064941,4689.5
614.132873535,4625.775
614.411621094,4584.725
614.690368652,4545.575
614.969177246,4498.2
615.247802734,4435.5
615.526489258,4406.725
615.805175781,4322.4
616.08380127,4224.325
616.362365723,4157.025
616.640991211,4126.05
616.919555664,4071.425
617.198059082,4178.25
617.4765625,4407.95
617.755126953,4550.125
618.033569336,4538.35
618.311950684,4564.825
618.590454102,4553.475
618.868774414,4529.0
619.147155762,4556.675
619.425598145,4535.95
619.703857422,4545.275
619.982177734,4555.625
620.260498047,4536.325
620.538757324,4531.975
620.816955566,4496.925
621.095214844,4469.425
621.373413086,4490.425
621.651550293,4539.95
621.929748535,4562.6
622.207824707,4523.825
622.485900879,4549.4
622.764038086,4554.3
623.042053223,4573.65
623.320007324,4593.225
623.598083496,4617.5
623.876037598,4588.85
624.153991699,4622.35
624.432006836,4677.875
624.709838867,4652.9
624.987731934,4647.65
625.265563965,4653.35
625.543395996,4651.475
625.821228027,4697.675
626.098999023,4681.65
626.376831055,4740.925
626.654541016,4746.65
626.932250977,4776.2
627.209960938,4801.95
627.487670898,4806.35
627.765319824,4829.575
628.04296875,4839.325
628.320495605,4844.8
628.598083496,4833.2
628.875671387,4875.2
629.153259277,4901.325
629.430725098,4947.275
629.708251953,4952.3
629.985656738,4967.35
630.263122559,4967.525
630.540588379,5014.875
630.817932129,5025.6
631.095275879,5050.85
631.372680664,5073.325
631.649963379,5127.575
631.927246094,5162.775
632.204589844,5190.25
632.481811523,5221.4
632.759033203,5293.875
633.036254883,5306.45
633.313415527,5379.025
633.590576172,5439.75
633.867736816,5516.225
634.144836426,5584.925
634.421875,5610.9
634.698913574,5663.825
634.976013184,5708.075
635.252990723,5755.075
635.529968262,5775.175
635.807006836,5830.25
636.08392334,5799.575
636.360839844,5752.5
636.637756348,5651.125
636.914611816,5620.75
637.191467285,5613.425
637.468261719,5647.4
637.745056152,5630.275
638.021789551,5655.225
638.298583984,5651.625
638.575317383,5659.575
638.851989746,5657.45
639.12878418,5670.1
639.405395508,5652.675
639.682006836,5660.225
639.958618164,5667.375
640.235229492,5643.1
640.511779785,5686.55
640.788330078,5654.95
641.064880371,5672.3
641.341308594,5646.825
641.617797852,5638.35
641.894226074,5639.125
642.170654297,5648.6
642.44708252,5647.125
642.723388672,5639.275
642.999755859,5638.875
643.276123047,5641.225
643.552429199,5611.175
643.828674316,5604.625
644.104919434,5555.0
644.381164551,5553.375
644.657348633,5575.3
644.933532715,5516.275
645.209716797,5514.625
645.485839844,5508.75
645.761901855,5495.425
646.038024902,5481.975
646.314086914,5503.575
646.590087891,5468.575
646.866149902,5502.175
647.142150879,5463.8
647.41809082,5450.925
647.694030762,5441.5
647.969970703,5428.925
648.245788574,5449.125
648.521728516,5409.225
648.797546387,5389.15
649.073303223,5422.975
649.349182129,5380.75
649.624938965,5373.5
649.900634766,5364.65
650.176391602,5354.925
650.452087402,5346.3
650.727783203,5362.925
651.003479004,5347.175
651.279052734,5322.75
651.554626465,5309.7
651.83026123,5296.2
652.105773926,5320.0
652.381286621,5276.325
652.656860352,5287.2
652.932312012,5271.95
653.207763672,5279.475
653.483215332,5280.85
653.758605957,5256.225
654.033935547,5281.575
654.309326172,5246.05
654.584716797,5273.175
654.859985352,5261.275
655.135253906,5274.15
655.410583496,5277.775
655.685791016,6069.3
655.9609375,9521.825
656.236206055,9278.375
656.511291504,6084.0
656.786437988,5378.325
657.061645508,5273.4
657.336669922,5236.9
657.611694336,5248.825
657.886779785,5275.625
658.161804199,5263.1
658.436828613,5231.725
658.711791992,5236.4
658.986755371,5243.4
659.261657715,5227.1
659.536621094,5229.4
659.811401367,5248.675
660.086303711,5242.7
660.36114502,5226.85
660.635864258,5219.55
660.910644531,5259.35
661.185424805,5201.8
661.460205078,5238.15
661.734863281,5220.025
662.009521484,5218.975
662.284179688,5227.75
662.558776855,5241.3
662.833435059,5262.15
663.108032227,5246.475
663.382568359,5215.4
663.657043457,5252.3
663.93157959,5239.275
664.206054688,5247.3
664.48046875,5255.85
664.755004883,5247.525
665.02935791,5255.5
665.303710938,5272.475
665.578125,5282.7
665.852416992,5253.975
666.126708984,5269.65
666.401062012,5274.95
666.675292969,5294.825
666.949462891,5275.0
667.223754883,5264.85
667.497924805,5302.95
667.772094727,5294.075
668.046264648,5262.525
668.3203125,5314.3
668.594421387,5325.425
668.868469238,5315.175
669.14251709,5289.275
669.416503906,5318.35
669.690551758,5322.65
669.964477539,5298.65
670.23840332,5295.35
670.512329102,5289.3
670.786254883,5252.7
671.060058594,5287.25
671.333984375,5288.825
671.607788086,5289.575
671.881530762,5265.175
672.155334473,5313.725
672.429077148,5332.7
672.702758789,5302.55
672.97644043,5279.15
673.25012207,5271.2
673.523742676,5288.975
673.797302246,5277.475
674.070922852,5317.575
674.344482422,5286.8
674.618041992,5293.15
674.891601562,5282.75
675.165100098,5289.475
675.438476562,5282.675
675.711975098,5285.375
675.985412598,5267.375
676.258789062,5250.25
676.532165527,5293.85
676.805480957,5257.25
677.078796387,5264.7
677.352111816,5276.425
677.625366211,5260.325
677.898620605,5242.525
678.171875,5282.65
678.445007324,5261.825
678.718200684,5267.975
678.991394043,5249.925
679.264404297,5259.75
679.537536621,5268.125
679.81060791,5259.525
680.083679199,5252.175
680.356689453,5245.625
680.629699707,5251.375
680.902648926,5231.825
681.175598145,5270.875
681.448547363,5277.275
681.721435547,5245.725
681.99420166,5255.85
682.267150879,5207.775
682.539916992,5251.025
682.812744141,5242.725
683.085510254,5215.95
683.358215332,5235.375
683.63092041,5220.525
683.903625488,5197.925
684.176330566,5220.525
684.448913574,5198.3
684.721557617,5165.7
684.99420166,5211.375
685.266662598,5207.825
685.539245605,5210.1
685.811767578,5214.4
686.084289551,5207.775
686.356689453,5209.2
686.629150391,5216.5
686.901550293,5222.4
687.17401123,5227.75
687.446350098,5232.35
687.718688965,5240.1
687.990966797,5253.375
688.263305664,5236.15
688.535522461,5216.75
688.807739258,5213.475
689.079956055,5232.975
689.352172852,5248.8
689.624328613,5259.35
689.896484375,5243.675
690.168518066,5245.75
690.440612793,5272.525
690.71270752,5264.125
690.984741211,5295.1
691.256713867,5294.525
691.528747559,5273.75
691.800720215,5273.925
692.072631836,5292.3
692.344543457,5308.45
692.616394043,5310.5
692.888244629,5299.125
693.160095215,5324.7
693.431945801,5326.5
693.703674316,5305.1
693.975463867,5282.025
694.247131348,5309.3
694.518859863,5289.0
694.790588379,5324.25
695.062255859,5320.825
695.33380127,5289.25
695.60546875,5311.275
695.87701416,5329.15
696.148498535,5322.1
696.42010498,5343.125
696.691589355,5351.65
696.96307373,5363.8
697.234558105,5381.05
697.50592041,5353.725
697.777282715,5371.925
698.048706055,5380.125
698.320068359,5381.7
698.591308594,5372.125
698.862670898,5361.325
699.133972168,5380.45
699.405151367,5379.2
699.676391602,5391.475
699.947570801,5386.625
700.21875,5384.4
700.489868164,5383.8
700.761047363,5405.525
701.032104492,5429.475
701.303100586,5380.45
701.57421875,5450.025
701.845214844,5430.775
702.116149902,5442.55
702.387207031,5434.45
702.65814209,5442.15
702.928955078,5448.7
703.199951172,5426.025
703.47076416,5429.775
703.741577148,5416.825
704.012451172,5445.125
704.28314209,5436.225
704.553955078,5419.4
704.824707031,5446.05
705.095397949,5462.55
705.366027832,5440.525
705.63671875,5457.8
705.907348633,5431.425
706.17791748,5446.1
706.448486328,5445.725
706.719055176,5485.65
706.989562988,5493.975
707.260131836,5485.15
707.530517578,5498.6
707.800964355,5503.45
708.071411133,5489.95
708.341796875,5474.775
708.612182617,5474.125
708.882446289,5458.5
709.152893066,5477.575
709.423156738,5514.725
709.693359375,5470.525
709.963623047,5500.55
710.233825684,5508.8
710.503967285,5494.775
710.774169922,5518.575
711.044311523,5518.675
711.31439209,5474.825
711.584533691,5493.95
711.854553223,5488.525
712.124572754,5523.825
712.39465332,5502.675
712.664611816,5529.625
712.934509277,5572.475
713.204467773,5517.225
713.474365234,5543.25
713.74420166,5552.475
714.014099121,5548.25
714.283874512,5558.575
714.553710938,5568.325
714.823486328,5548.85
715.093200684,5527.35
715.362915039,5555.3
715.632629395,5567.025
715.902282715,5548.575
716.171875,5559.475
716.441589355,5566.45
716.711181641,5513.575
716.980712891,5556.725
717.250244141,5525.5
717.519775391,5550.025
717.78918457,5558.65
718.058654785,5584.55
718.328125,5606.425
718.597473145,5581.6
718.866882324,5585.15
719.136230469,5616.05
719.405578613,5644.675
719.674865723,5631.4
719.944152832,5628.875
720.213439941,5623.325
720.48260498,5634.3
720.75177002,5657.25
721.020996094,5662.275
721.290100098,5661.825
721.559204102,5638.825
721.828308105,5652.325
722.097351074,5655.775
722.366455078,5637.625
722.635437012,5663.95
722.904418945,5661.15
723.173400879,5655.35
723.442321777,5694.1
723.711181641,5670.675
723.980102539,5695.0
724.248962402,5686.0
724.51776123,5660.65
724.786560059,5685.55
725.055358887,5713.125
725.324035645,5719.975
725.592834473,5739.25
725.86151123,5718.275
726.130187988,5736.8
726.398803711,5739.5
726.667419434,5748.625
726.935974121,5739.25
727.204528809,5728.425
727.473083496,5729.625
727.741638184,5724.7
728.010070801,5695.05
728.278564453,5707.3
728.546936035,5681.475
728.815368652,5638.475
729.08380127,5613.725
729.352111816,5587.2
729.620361328,5560.625
729.88873291,5618.45
730.156982422,5630.2
730.425231934,5615.825
730.693481445,5649.5
730.961669922,5677.625
731.229797363,5716.975
731.49798584,5737.25
731.766113281,5780.85
732.034118652,5834.875
732.302246094,5879.05
732.570251465,5896.5
732.838256836,5935.05
733.106262207,6002.725
733.374145508,6032.65
733.642089844,6042.8
733.909973145,6095.925
734.177856445,6155.975
734.445678711,6204.425
734.713562012,6285.675
734.981323242,6274.125
735.249084473,6317.025
735.516845703,6406.1
735.784545898,6477.225
736.052185059,6458.95
736.319885254,6563.95
736.587524414,6625.65
736.855102539,6664.325
737.122619629,6742.35
737.390197754,6789.4
737.657714844,6914.875
737.925170898,6932.05
738.192749023,7015.35
738.460144043,7094.7
738.727539062,7120.525
738.994995117,7187.125
739.262329102,7262.75
739.529663086,7350.0
739.79699707,7401.45
740.06427002,7440.425
740.331481934,7500.225
740.598754883,7550.35
740.865905762,7572.15
741.133056641,7680.45
741.40032959,7703.525
741.667358398,7742.65
741.934448242,7805.425
742.201599121,7838.2
742.468566895,7932.575
742.735534668,7955.475
743.002563477,7993.0
743.26953125,7980.55
743.536437988,8043.55
743.803405762,8134.6
744.0703125,8104.4
744.337097168,8183.625
744.604003906,8148.525
744.870727539,8238.275
745.137512207,8269.05
745.40423584,8279.925
745.670959473,8301.625
745.93762207,8329.075
746.204284668,8358.925
746.470947266,8372.75
746.737548828,8388.525
747.004089355,8388.025
747.270751953,8409.225
747.53717041,8466.0
747.803710938,8438.225
748.070251465,8427.975
748.336608887,8452.325
748.603027344,8446.0
748.869445801,8431.15
749.135803223,8445.025
749.402099609,8445.775
749.668457031,8487.15
749.934753418,8494.65
750.20098877,8469.875
750.467224121,8524.425
750.733459473,8490.125
750.999572754,8513.475
751.26574707,8441.35
751.531860352,8521.3
751.797912598,8504.775
752.064025879,8451.7
752.330078125,8460.975
752.596069336,8418.55
752.862060547,8421.9
753.127990723,8447.525
753.393920898,8431.925
753.659912109,8402.8
753.925720215,8463.05
754.19152832,8460.375
754.457397461,8419.375
754.723144531,8452.425
754.988952637,8408.2
755.254699707,8452.725
755.520385742,8464.75
755.786071777,8459.625
756.051696777,8437.55
756.317382812,8405.675
756.582946777,8380.075
756.848510742,8432.05
757.114074707,8369.975
757.379577637,8384.625
757.645080566,8459.7
757.910583496,8429.8
758.175964355,8379.425
758.441345215,8348.675
758.706848145,8275.1
758.972106934,8316.8
759.237426758,8360.675
759.502807617,8371.1
759.768005371,8373.975
760.03326416,8359.65
760.298522949,8294.925
760.563659668,8349.675
760.828857422,8324.825
761.093994141,8341.15
761.359130859,8318.125
761.624206543,8323.975
761.889282227,8325.875
762.15423584,8297.275
762.419250488,8277.2
762.684265137,8259.5
762.949157715,8289.95
763.214050293,8277.6
763.479003906,8287.6
763.743835449,8292.475
764.008666992,8296.6
764.2734375,8262.725
764.538208008,8299.2
764.802978516,8323.125
765.067687988,8287.95
765.332397461,8314.25
765.597045898,8270.525
765.861694336,8207.025
766.126342773,8234.075
766.390930176,8242.3
766.655395508,8216.725
766.920043945,8191.775
767.184509277,8258.2
767.448974609,8244.05
767.713439941,8241.825
767.977783203,8249.65
768.2421875,8286.525
768.506591797,8245.725
768.770874023,8327.625
769.03515625,8299.25
769.299499512,8270.3
769.563720703,8301.725
769.827941895,8216.5
770.092163086,8243.825
770.356323242,8261.325
770.620483398,8288.175
770.88458252,8332.325
771.148681641,8338.4
771.412719727,8310.4
771.676757812,8333.475
771.940734863,8291.725
772.204711914,8292.175
772.468688965,8262.05
772.73260498,8272.9
772.996459961,8290.85
773.260314941,7402.425
773.524169922,967.25
773.787963867,144.35
774.051696777,122.125
774.315551758,118.9
774.579223633,121.525
774.842895508,121.025
775.106567383,122.125
775.370239258,118.75
775.633789062,124.85
775.897399902,125.975
776.160949707,119.0
776.424499512,119.775
776.687988281,122.3
776.951477051,125.925
777.214904785,120.675
777.47833252,120.25
