191.299911499,98.925
191.603515625,102.025
191.907119751,98.0
192.210693359,105.2
192.514251709,98.2
192.817810059,107.3
193.121368408,102.85
193.42489624,103.6
193.728408813,100.175
194.031936646,100.85
194.33543396,92.775
194.638916016,109.275
194.94241333,94.425
195.245880127,97.05
195.549331665,91.575
195.852767944,100.5
196.156204224,171.525
196.459625244,166.725
196.763015747,169.425
197.066436768,176.225
197.369812012,168.95
197.673187256,170.15
197.9765625,164.85
198.279922485,167.375
198.583251953,160.95
198.886581421,165.625
199.18989563,172.975
199.493209839,169.4
199.79649353,161.45
200.09979248,173.55
200.403076172,167.725
200.706314087,168.6
201.009567261,167.225
201.312820435,169.65
201.616027832,160.025
201.919235229,160.325
202.222457886,162.95
202.525634766,168.925
202.828826904,159.875
203.132003784,158.85
203.435150146,158.675
203.738296509,158.6
204.041412354,160.325
204.344558716,168.425
204.647659302,168.825
204.950759888,167.925
205.253845215,166.5
205.556930542,161.225
205.859985352,163.05
206.163024902,162.6
206.466079712,163.975
206.769104004,170.225
207.072113037,165.225
207.375137329,161.2
207.678131104,166.875
207.981109619,160.875
208.284088135,161.825
208.587036133,162.5
208.889984131,164.95
209.19291687,165.0
209.495849609,166.2
209.798751831,167.05
210.101654053,164.85
210.404556274,168.675
210.707427979,165.425
211.010269165,170.85
211.31312561,172.625
211.615982056,166.0
211.918807983,169.475
212.221618652,165.95
212.524429321,164.825
212.827224731,173.5
213.130004883,166.25
213.432769775,171.325
213.735534668,166.975
214.038269043,170.475
214.341003418,165.75
214.643737793,171.7
214.946456909,172.275
215.249145508,173.725
215.551834106,173.675
215.854507446,172.525
216.157165527,171.3
216.45980835,171.95
216.762451172,175.55
217.065078735,177.025
217.36769104,171.125
217.670303345,177.25
217.972885132,175.7
218.275466919,181.325
218.578048706,171.075
218.880599976,183.125
219.183120728,181.875
219.485656738,178.225
219.788192749,188.9
220.090682983,197.55
220.393188477,213.125
220.695663452,231.075
220.998138428,241.875
221.300582886,266.425
221.603042603,278.8
221.905487061,307.075
222.207901001,333.725
222.510299683,370.6
222.812728882,400.375
223.115097046,444.375
223.41746521,481.825
223.719848633,514.125
224.022171021,541.425
224.324508667,586.2
224.626846313,636.525
224.929168701,671.75
225.231460571,707.275
225.533737183,730.875
225.836013794,767.3
226.138290405,805.8
226.440536499,828.325
226.742767334,864.425
227.044998169,884.2
227.347213745,909.325
227.649429321,923.075
227.951629639,943.15
228.253799438,954.225
228.555953979,971.7
228.858123779,977.15
229.160263062,986.1
229.462371826,992.6
229.764511108,1008.2
230.066619873,998.975
230.36869812,1018.5
230.670776367,1017.15
230.972854614,1015.825
231.274902344,1026.15
231.576950073,1039.375
231.878967285,1026.325
232.180999756,1044.0
232.48298645,1049.15
232.784988403,1059.725
233.086975098,1061.8
233.388946533,1068.275
233.69090271,1069.6
233.992858887,1080.45
234.294769287,1060.4
234.596694946,1065.9
234.898605347,1082.1
235.200500488,1065.125
235.502380371,1070.6
235.804244995,1063.575
236.106109619,1050.5
236.407958984,1061.55
236.709777832,1060.725
237.011581421,1048.8
237.313400269,1016.8
237.615203857,1037.9
237.916976929,1046.85
238.21875,1035.025
238.520507812,1017.5
238.822250366,1028.6
239.12399292,1017.825
239.425704956,1026.95
239.727401733,1003.85
240.02911377,1007.825
240.330780029,995.175
240.632446289,993.3
240.93409729,998.875
241.23576355,1007.7
241.537384033,1005.9
241.839004517,1007.925
242.140594482,1011.25
242.442199707,1009.075
242.743774414,1020.875
243.045333862,1010.0
243.346923828,1022.35
243.648452759,1016.8
243.949966431,1010.75
244.251495361,1036.625
244.552993774,1033.4
244.854492188,1030.625
245.155975342,1038.75
245.457443237,1035.0
245.758880615,1045.05
246.060333252,1039.95
246.36177063,1037.5
246.66317749,1052.5
246.964569092,1039.275
247.265945435,1048.6
247.567337036,1065.35
247.86869812,1072.175
248.170059204,1076.55
248.471389771,1092.45
248.772705078,1097.95
249.074035645,1112.775
249.375335693,1131.45
249.676620483,1163.65
249.977890015,1170.375
250.279159546,1188.425
250.58039856,1212.9
250.881637573,1226.825
251.182876587,1252.3
251.484069824,1281.675
251.785263062,1311.025
252.086456299,1355.05
252.387619019,1368.975
252.688781738,1395.0
252.989929199,1432.75
253.291061401,1483.6
253.592178345,1518.675
253.893280029,1552.2
254.194366455,1584.7
254.49546814,1612.25
254.796524048,1641.4
255.097579956,1689.9
255.398620605,1716.625
255.699645996,1749.375
256.000640869,1782.25
256.30166626,1819.7
256.602661133,1850.25
256.903656006,1877.325
257.204589844,1918.6
257.505523682,1937.45
257.80645752,1982.275
258.107391357,1995.075
258.408294678,2027.35
258.709228516,2043.85
259.010070801,2056.85
259.310943604,2107.775
259.611846924,2105.1
259.912658691,2123.925
260.213500977,2148.175
260.514343262,2157.0
260.815124512,2157.55
261.115936279,2198.125
261.416717529,2219.15
261.717468262,2233.1
262.018218994,2251.025
262.318969727,2270.525
262.619689941,2326.45
262.920410156,2359.625
263.221130371,2425.125
263.521789551,2446.675
263.822479248,2490.85
264.123138428,2558.9
264.42376709,2581.85
264.72442627,2622.675
265.025054932,2648.25
265.325622559,2688.675
265.626251221,2718.675
265.926818848,2734.375
266.227386475,2755.5
266.527954102,2750.575
266.828460693,2805.0
267.12902832,2790.85
267.429534912,2781.875
267.730010986,2802.6
268.030517578,2806.75
268.330993652,2834.6
268.631439209,2833.65
268.931915283,2851.775
269.232299805,2844.4
269.532745361,2860.1
269.8331604,2868.6
270.133544922,2882.525
270.433929443,2898.875
270.734313965,2907.475
271.034637451,2939.175
271.334991455,2959.025
271.635314941,3009.55
271.935638428,3033.575
272.235931396,3079.0
272.536254883,3125.575
272.836486816,3172.475
273.136749268,3230.45
273.437011719,3317.825
273.737213135,3411.35
274.037445068,3456.85
274.337677002,3533.75
274.6378479,3602.15
274.938049316,3705.675
275.238220215,3772.35
275.538360596,3889.875
275.838500977,3936.65
276.138641357,4056.9
276.438751221,4118.925
276.738830566,4202.525
277.03894043,4268.575
277.338989258,4379.875
277.639038086,4469.4
277.939056396,4490.05
278.239105225,4574.425
278.539093018,4664.8
278.839141846,4709.225
279.139129639,4779.525
279.439086914,4848.2
279.739044189,4920.4
280.039001465,4995.05
280.338928223,5060.175
280.63885498,5092.75
280.938781738,5194.075
281.238647461,5220.5
281.538513184,5267.625
281.838409424,5314.05
282.138244629,5372.475
282.438079834,5415.725
282.737945557,5473.45
283.037719727,5482.65
283.337524414,5550.575
283.637298584,5574.775
283.937072754,5602.05
284.236816406,5645.525
284.536560059,5644.125
284.836303711,5701.7
285.136016846,5756.55
285.43572998,5781.975
285.735412598,5793.35
286.035064697,5834.0
286.334747314,5881.775
286.634368896,5900.025
286.933990479,5859.925
287.233642578,5879.45
287.533203125,5863.875
287.832824707,5852.975
288.132385254,5824.425
288.431945801,5751.625
288.731506348,5659.775
289.031036377,5540.1
289.330566406,5490.55
289.630065918,5500.525
289.92956543,5467.35
290.229034424,5549.275
290.528503418,5714.5
290.827941895,5843.7
291.127380371,5946.45
291.42678833,6075.55
291.726226807,6200.925
292.025604248,6242.0
292.324981689,6279.0
292.624359131,6299.85
292.923736572,6341.45
293.223052979,6343.325
293.522369385,6359.625
293.821685791,6339.975
294.12097168,6343.85
294.420257568,6329.15
294.719543457,6335.175
295.018768311,6326.05
295.318023682,6275.2
295.617248535,6258.875
295.916442871,6226.325
296.215667725,6171.3
296.514862061,6077.5
296.813995361,5925.975
297.11315918,5770.575
297.412322998,5668.8
297.711425781,5643.725
298.010559082,5770.5
298.309631348,5928.525
298.608734131,6118.55
298.907806396,6285.3
299.206848145,6425.525
299.505889893,6476.0
299.804901123,6571.225
300.103912354,6646.425
300.402954102,6689.125
300.701904297,6779.175
301.00088501,6795.675
301.299835205,6882.4
301.5987854,6891.85
301.897735596,6969.5
302.196624756,7023.15
302.495513916,7106.775
302.794403076,7118.25
303.093292236,7186.075
303.392120361,7239.45
303.690979004,7313.125
303.989837646,7348.05
304.288604736,7383.45
304.587402344,7361.575
304.886199951,7448.425
305.184967041,7442.475
305.483734131,7503.8
305.782501221,7548.7
306.081176758,7555.15
306.37991333,7591.925
306.678619385,7590.1
306.977294922,7595.375
307.275970459,7642.45
307.574645996,7650.25
307.873260498,7609.625
308.171875,7667.525
308.470489502,7629.475
308.769104004,7562.25
309.067687988,7573.225
309.366241455,7566.6
309.664794922,7516.525
309.963348389,7570.975
310.261871338,7577.375
310.560394287,7550.675
310.858856201,7579.0
311.157348633,7634.0
311.455810547,7631.025
311.754272461,7654.275
312.052703857,7706.325
312.351135254,7716.825
312.649536133,7726.975
312.947937012,7713.475
313.246307373,7745.95
313.544647217,7749.575
313.843017578,7693.825
314.141387939,7684.1
314.439697266,7721.8
314.738006592,7634.475
315.036315918,7582.425
315.334564209,7523.825
315.6328125,7469.15
315.931091309,7439.725
316.229309082,7330.025
316.527526855,7203.85
316.825744629,7208.175
317.123901367,7082.55
317.422088623,7046.225
317.720245361,7072.225
318.0184021,7074.7
318.316497803,7097.325
318.614654541,7160.825
318.912750244,7219.7
319.21081543,7219.7
319.50894165,7239.05
319.806945801,7226.725
320.104980469,7223.25
320.403045654,7236.15
320.701049805,7231.3
320.999023438,7199.175
321.297027588,7147.3
321.595001221,7146.675
321.892913818,7140.825
322.190887451,7059.675
322.488830566,7004.65
322.786712646,6976.95
323.084625244,6896.5
323.382507324,6901.95
323.680358887,6843.275
323.978210449,6766.125
324.276062012,6719.0
324.573852539,6663.8
324.871643066,6630.65
325.169464111,6576.65
325.467224121,6508.95
325.764984131,6457.825
326.062744141,6406.375
326.360473633,6340.975
326.658203125,6307.5
326.955871582,6221.8
327.253570557,6165.875
327.551239014,6134.225
327.848907471,6091.65
328.146514893,6013.325
328.444152832,5951.8
328.741790771,5918.525
329.039367676,5872.325
329.336914062,5819.175
329.634521484,5759.225
329.932067871,5720.45
330.229553223,5656.425
330.527160645,5596.075
330.824615479,5559.75
331.12210083,5512.225
331.419586182,5402.025
331.717041016,5374.9
332.014465332,5287.65
332.311920166,5292.525
332.609313965,5213.175
332.906707764,5224.525
333.204101562,5206.525
333.501495361,5220.675
333.798828125,5260.95
334.096160889,5289.975
334.39352417,5337.85
334.690795898,5389.75
334.988098145,5422.425
335.285400391,5463.025
335.582641602,5470.55
335.879882812,5484.525
336.177124023,5524.45
336.474334717,5585.175
336.77154541,5575.95
337.068725586,5596.15
337.365905762,5609.15
337.66305542,5616.35
337.960205078,5647.45
338.257324219,5643.1
338.554443359,5648.325
338.8515625,5673.9
339.148590088,5677.225
339.445648193,5684.375
339.742736816,5643.15
340.039764404,5659.95
340.336761475,5605.475
340.63381958,5579.1
340.930755615,5538.275
341.227722168,5474.05
341.524688721,5414.45
341.821624756,5379.425
342.118560791,5424.2
342.415496826,5468.15
342.712402344,5582.975
343.009246826,5684.575
343.306121826,5823.725
343.602966309,5866.05
343.899810791,5930.425
344.196624756,5994.15
344.493438721,6028.8
344.79019165,6075.45
345.086975098,6107.875
345.383758545,6155.25
345.680480957,6139.325
345.977203369,6148.3
346.273956299,6176.95
346.570617676,6199.425
346.86730957,6183.85
347.163970947,6165.35
347.460601807,6225.025
347.757232666,6212.725
348.053894043,6225.8
348.350463867,6145.55
348.647064209,6153.95
348.943634033,6118.9
349.24017334,6145.4
349.536712646,6090.025
349.833251953,6101.825
350.129760742,6051.675
350.426208496,6062.95
350.722747803,6047.375
351.019195557,6035.85
351.315612793,5996.125
351.612060547,5965.625
351.908508301,5918.75
352.204864502,5873.075
352.501281738,5845.525
352.797637939,5778.8
353.093963623,5702.5
353.390319824,5656.5
353.686645508,5581.55
353.982940674,5516.85
354.27923584,5490.825
354.575531006,5434.45
354.871765137,5433.075
355.167999268,5403.475
355.464233398,5425.75
355.760437012,5412.8
356.056640625,5441.375
356.352813721,5420.225
356.648956299,5419.975
356.945129395,5427.275
357.241271973,5419.8
357.537384033,5455.575
357.833496094,5403.025
358.129577637,5390.2
358.425628662,5361.9
358.721679688,5350.85
359.017730713,5325.35
359.313720703,5275.9
359.609710693,5268.425
359.905761719,5223.175
360.201721191,5175.9
360.497650146,5142.65
360.793609619,5109.825
361.089538574,5038.5
361.385437012,4993.375
361.681365967,4923.25
361.977233887,4887.45
362.273071289,4835.875
362.568908691,4751.75
362.864746094,4646.925
363.160552979,4547.025
363.456359863,4377.35
363.752166748,4275.825
364.047912598,4185.6
364.343658447,4166.4
364.639434814,4202.15
364.935119629,4229.525
365.230834961,4286.975
365.526550293,4304.8
365.822174072,4310.35
366.117858887,4347.675
366.413482666,4375.225
366.709075928,4399.3
367.004730225,4291.725
367.300292969,4303.85
367.595855713,4355.2
367.891448975,4249.725
368.186981201,4163.925
368.482513428,4122.05
368.778015137,4117.3
369.073547363,4063.6
369.36895752,4094.275
369.664428711,3994.1
369.95993042,3911.7
370.255310059,3859.3
370.550720215,3847.025
370.846160889,3811.85
371.14151001,3784.275
371.436859131,3785.975
371.73223877,3744.025
372.027557373,3738.85
372.322875977,3666.375
372.618164062,3636.9
372.913482666,3604.625
373.208709717,3582.75
373.503967285,3531.5
373.799194336,3503.375
374.094421387,3503.75
374.389648438,3496.8
374.684844971,3453.525
374.979980469,3506.45
375.275146484,3528.875
375.570281982,3542.325
375.865386963,3550.275
376.160522461,3489.1
376.455596924,3501.15
376.750640869,3584.525
377.045715332,3589.775
377.340759277,3639.9
377.635772705,3650.475
377.93081665,3693.45
378.225769043,3764.875
378.520751953,3804.125
378.815734863,3792.2
379.110656738,3919.475
379.405548096,4098.725
379.700500488,3957.425
379.995391846,3752.15
380.290252686,3815.3
380.585083008,3882.0
380.879974365,3927.95
381.17477417,3850.65
381.469543457,3788.9
381.764404297,3781.525
382.059143066,3832.05
382.353912354,3906.175
382.648651123,3991.975
382.943389893,3954.775
383.238067627,3809.8
383.532775879,3802.725
383.827484131,3753.0
384.12210083,3755.2
384.416778564,3723.225
384.711425781,3628.975
385.006011963,3663.2
385.300628662,3646.1
385.595184326,3708.65
385.88973999,3782.95
386.184295654,3882.125
386.478820801,3956.525
386.77331543,4045.575
387.067840576,4143.725
387.362335205,4207.55
387.656768799,4278.1
387.951202393,4317.75
388.245635986,4389.925
388.540039062,4435.55
388.834472656,4494.975
389.128875732,4412.4
389.423187256,4213.225
389.717559814,4175.325
390.011871338,4286.65
390.306182861,4297.325
390.600463867,4309.05
390.894775391,4369.75
391.189025879,4400.175
391.48324585,4395.3
391.777526855,4435.725
392.071685791,4610.825
392.365875244,4719.5
392.660064697,4765.175
392.95425415,5080.225
393.248382568,5052.275
393.542510986,4642.55
393.836608887,4476.575
394.130706787,4484.575
394.424804688,4421.525
394.71887207,4559.775
395.012878418,4542.5
395.306915283,4413.925
395.600921631,4355.225
395.894927979,4329.125
396.188903809,4368.9
396.482879639,4398.0
396.776794434,4559.85
397.070739746,4535.275
397.364654541,4561.1
397.658538818,4903.9
397.952423096,4922.35
398.246307373,4878.225
398.540100098,5356.2
398.833953857,5263.95
399.127746582,4828.9
399.421508789,4835.35
399.715301514,4756.225
400.009063721,4671.225
400.30279541,4557.6
400.596496582,4456.6
400.890258789,4645.375
401.183929443,4701.05
401.47756958,4608.125
401.771240234,4393.3
402.064880371,4396.2
402.35848999,4452.725
402.652130127,4355.525
402.945678711,4422.975
403.239257812,4367.075
403.532775879,4333.225
403.82635498,4360.3
404.119842529,4295.75
404.413360596,4262.225
404.706848145,4337.875
405.000274658,4272.0
405.293762207,4341.55
405.587188721,4390.425
405.880584717,4241.4
406.17401123,4080.475
406.467407227,3913.475
406.760742188,3909.15
407.054107666,3938.025
407.347442627,3874.9
407.640716553,3858.25
407.934051514,3922.475
408.227325439,4002.225
408.520568848,4170.4
408.813842773,4247.95
409.107086182,4070.875
409.400238037,4029.325
409.693450928,3958.35
409.986633301,4059.0
410.279754639,3994.475
410.572875977,3728.175
410.86605835,3662.4
411.159118652,3673.775
411.452209473,3700.75
411.745330811,3560.325
412.038360596,3493.55
412.331390381,3508.2
412.624420166,3557.075
412.917388916,3476.55
413.210388184,3326.2
413.503387451,3298.7
413.796295166,3192.275
414.089233398,3044.3
414.382141113,2966.7
414.675048828,2964.425
414.967926025,2985.95
415.260803223,2939.975
415.55368042,2969.25
415.846466064,2931.025
416.139282227,3005.9
416.432098389,3111.825
416.724853516,3118.85
417.017608643,3049.825
417.31036377,3063.35
417.603088379,3168.75
417.895782471,3153.775
418.188476562,3123.175
418.481140137,3195.725
418.773803711,3232.4
419.066436768,3213.05
419.359039307,3279.2
419.651641846,3270.05
419.944244385,3284.125
420.236816406,3254.825
420.529327393,3423.6
420.821899414,3503.0
421.114379883,3441.35
421.406860352,3681.75
421.699371338,3879.725
421.991821289,3823.925
422.284240723,3629.975
422.576721191,3521.625
422.869110107,3433.375
423.161468506,3368.875
423.453857422,3410.075
423.74621582,3314.325
424.038543701,3190.85
424.330871582,3146.0
424.623168945,3081.975
424.915435791,3202.475
425.207702637,3166.025
425.499969482,3129.375
425.792205811,3078.275
426.084411621,2841.75
426.376617432,2926.375
426.668762207,2973.575
426.9609375,2893.75
427.253082275,2987.525
427.545196533,3344.225
427.837310791,3088.75
428.129425049,2851.725
428.421447754,3025.875
428.713531494,3036.375
429.005554199,3034.15
429.297576904,3034.5
429.589599609,3412.4
429.881561279,3702.6
430.173522949,3505.65
430.465484619,3458.625
430.757415771,3528.875
431.049316406,3323.9
431.341186523,3114.425
431.633117676,3017.125
431.924957275,2753.0
432.21673584,2657.8
432.508636475,2779.575
432.800415039,2803.45
433.092163086,2714.45
433.383972168,2687.95
433.675689697,3324.0
433.967437744,3762.05
434.259155273,2898.85
434.550872803,2633.9
434.842498779,2675.9
435.134185791,2804.975
435.425842285,2807.625
435.717437744,2711.525
436.009063721,2558.225
436.30065918,2690.95
436.592224121,2991.3
436.883758545,2833.475
437.175323486,2580.375
437.466827393,2557.9
437.758331299,2570.3
438.049804688,2594.45
438.341247559,2660.65
438.63269043,2716.825
438.924163818,2713.6
439.215515137,2680.55
439.50692749,2585.0
439.798309326,2584.375
440.089660645,2608.15
440.380981445,2512.8
440.672332764,2508.05
440.963623047,2759.85
441.254882812,3155.7
441.546173096,3312.725
441.837402344,3116.225
442.128631592,2932.025
442.41986084,2919.3
442.711029053,2796.625
443.002197266,2856.125
443.293365479,3022.85
443.584503174,3156.525
443.875610352,3128.85
444.166717529,2887.075
444.457794189,2925.525
444.748840332,2919.4
445.039916992,2865.725
445.330932617,2974.15
445.621948242,2807.6
445.912963867,2659.225
446.203918457,2861.325
446.494812012,3056.95
446.785827637,2883.3
447.076721191,2732.175
447.367584229,2696.6
447.658447266,2673.35
447.949371338,2732.675
448.24017334,2609.775
448.530975342,2546.275
448.821838379,2696.975
449.112579346,2766.4
449.40335083,2711.7
449.694152832,2744.1
449.984863281,2742.45
450.27557373,2683.875
450.56628418,2733.775
450.856933594,2758.35
451.147583008,2598.4
451.438262939,2507.3
451.728881836,2692.575
452.019470215,2776.7
452.310089111,2579.95
452.600646973,2616.775
452.891174316,2660.25
453.181732178,2514.225
453.472229004,2406.55
453.762695312,2486.5
454.053222656,2524.2
454.343658447,2392.35
454.634063721,2339.975
454.924530029,2505.525
455.214935303,2632.9
455.505279541,2690.075
455.795715332,2578.725
456.086029053,2382.575
456.376312256,2373.65
456.666687012,2404.925
456.956939697,2486.975
457.247192383,2486.1
457.537445068,2568.325
457.827728271,2723.925
458.117919922,2672.125
458.408081055,2584.55
458.698303223,2751.85
458.988433838,2701.5
459.278564453,2542.8
459.568725586,2782.375
459.858825684,2890.925
460.148864746,2599.75
460.438995361,2569.825
460.729034424,2610.45
461.019042969,2636.675
461.309082031,2806.575
461.599060059,2703.65
461.889007568,2297.2
462.179016113,2125.45
462.468933105,2334.175
462.75881958,2449.225
463.048736572,2210.7
463.338592529,2444.4
463.628448486,2781.5
463.918365479,2506.35
464.2081604,2669.05
464.497924805,2618.925
464.787780762,2729.475
465.077514648,2995.025
465.367218018,2663.575
465.657012939,2847.4
465.946685791,3213.375
466.236358643,2847.225
466.526092529,2393.75
466.815734863,2384.65
467.105316162,2314.725
467.394927979,2333.475
467.684570312,2206.6
467.974121094,2281.75
468.263671875,2382.125
468.553222656,2188.675
468.842773438,2091.675
469.132232666,2006.825
469.42175293,2026.5
469.711212158,2004.725
470.000640869,1884.725
470.290100098,1943.6
470.579498291,1978.4
470.868835449,1980.925
471.158294678,1930.725
471.447601318,1923.325
471.736907959,1985.75
472.026275635,2044.975
472.315551758,2022.4
472.604797363,2016.4
472.894104004,2152.85
473.183319092,2237.425
473.47253418,2234.6
473.761779785,2213.975
474.05090332,2155.55
474.340087891,2113.725
474.629241943,2053.1
474.918365479,2205.325
475.207427979,2442.825
475.496551514,2476.4
475.785614014,2230.925
476.074645996,2063.0
476.363708496,2133.5
476.652679443,2255.9
476.941650391,2089.725
477.230682373,1971.05
477.519622803,1961.875
477.808502197,2099.125
478.097412109,2337.675
478.386352539,2291.8
478.675201416,2059.025
478.964050293,1968.25
479.25289917,2133.475
479.541717529,2189.075
479.830474854,2038.3
480.11932373,2348.825
480.408050537,2508.775
480.696777344,2159.575
480.985534668,2050.325
481.274200439,2127.125
481.562866211,2342.05
481.851593018,2364.4
482.140197754,2294.35
482.428833008,2166.925
482.717468262,1982.55
483.006011963,2019.725
483.294586182,2121.425
483.5831604,2156.95
483.871673584,2031.875
484.16015625,2153.3
484.448699951,2365.275
484.7371521,2417.825
485.02557373,2408.85
485.314025879,2164.625
485.602416992,3346.275
485.890777588,11955.15
486.179199219,10681.15
486.467559814,2849.6
486.755859375,2069.5
487.044219971,2410.675
487.332519531,2572.8
487.620758057,2205.1
487.908966064,1984.825
488.197265625,1804.225
488.485473633,1715.375
488.773651123,1819.525
489.061859131,1807.2
489.350006104,1783.425
489.638122559,1710.35
489.926300049,1730.45
490.214355469,1694.15
490.502441406,1649.125
490.790527344,1582.375
491.078552246,1757.35
491.366546631,1757.9
491.654602051,1549.35
491.942565918,1616.1
492.230499268,1651.15
492.518493652,1623.725
492.806396484,1642.925
493.094268799,1560.6
493.382202148,1600.025
493.670074463,1699.65
493.957885742,1569.9
494.245727539,1543.7
494.533508301,1715.325
494.821289062,1613.025
495.109100342,1478.2
495.396850586,1420.325
495.684539795,1387.1
495.972290039,1581.375
496.25994873,1877.6
496.547607422,1881.175
496.835296631,1705.475
497.122894287,1435.325
497.410522461,1373.4
497.6980896,1362.525
497.985687256,1337.125
498.273223877,1429.7
498.560760498,1490.6
498.848266602,1510.225
499.135772705,1483.375
499.423217773,1526.7
499.710693359,1619.75
499.998138428,1553.925
500.285522461,1404.6
500.572937012,1339.925
500.860290527,1388.675
501.147644043,1462.725
501.434997559,1663.0
501.722290039,1570.95
502.00958252,1341.825
502.296875,1576.625
502.584106445,1567.125
502.871337891,1417.125
503.158599854,1468.45
503.445770264,1552.725
503.732910156,1513.225
504.020141602,1353.85
504.307220459,1343.25
504.594329834,1354.4
504.881469727,1311.825
505.168518066,1369.0
505.455535889,1428.125
505.742614746,1332.55
506.029632568,1269.775
506.316589355,1427.3
506.603637695,1498.2
506.890563965,1344.275
507.177459717,1188.85
507.464385986,1117.225
507.751312256,1311.975
508.038146973,1382.175
508.325012207,1265.4
508.611877441,1305.875
508.898681641,1326.275
509.185424805,1179.7
509.472259521,1150.725
509.759002686,1221.5
510.045715332,1244.5
510.332458496,1203.55
510.619140625,1242.525
510.905761719,1174.725
511.192504883,1165.075
511.479095459,1208.0
511.765686035,1157.125
512.052307129,1091.425
512.338928223,1047.775
512.625427246,1095.725
512.91204834,1147.4
513.198486328,1131.65
513.484985352,1095.25
513.77142334,1033.125
514.057922363,1078.95
514.344299316,1064.625
514.63079834,1040.275
514.917175293,1026.4
515.203552246,949.55
515.489868164,927.85
515.776245117,1024.05
516.0625,1058.075
516.348815918,981.05
516.635070801,1018.525
516.921325684,1057.775
517.207580566,1000.025
517.493774414,929.075
517.779968262,943.725
518.066101074,971.05
518.352294922,930.65
518.638366699,925.475
518.924499512,998.6
519.210632324,1055.275
519.496643066,1022.725
519.782714844,949.775
520.068786621,910.825
520.354736328,881.65
520.640686035,846.775
520.926757812,887.6
521.212646484,954.45
521.498535156,965.375
521.784484863,912.475
522.0703125,858.75
522.356262207,869.025
522.642089844,937.2
522.927856445,928.775
523.213684082,918.2
523.499511719,916.425
523.78527832,950.55
524.070983887,996.8
524.356750488,975.075
524.64239502,940.375
524.928039551,932.75
525.213806152,946.15
525.499389648,939.475
525.784973145,953.35
526.070617676,996.125
526.356140137,960.85
526.641723633,967.725
526.927307129,1027.75
527.212768555,1029.375
527.498291016,1015.2
527.783752441,1007.75
528.069213867,986.375
528.354675293,1017.6
528.640014648,1149.0
528.925476074,1202.825
529.21081543,1135.875
529.496154785,1120.475
529.781555176,1085.325
530.066833496,1097.925
530.352050781,1125.6
530.637390137,1114.2
530.922607422,1109.275
531.207824707,1110.05
531.493041992,1094.575
531.778198242,1152.0
532.063354492,1133.55
532.348571777,1093.075
532.633666992,1104.225
532.918762207,1159.075
533.203857422,1232.625
533.488891602,1263.575
533.773925781,1209.925
534.059020996,1192.05
534.343933105,1219.9
534.628967285,1197.35
534.91394043,1214.3
535.198852539,1227.4
535.483703613,1196.075
535.768676758,1144.875
536.053527832,1159.1
536.338317871,1126.6
536.62322998,1070.875
536.90802002,1043.025
537.192810059,1063.6
537.477539062,1140.45
537.762329102,1173.275
538.047058105,1196.425
538.331726074,1233.05
538.616455078,1206.9
538.901123047,1193.675
539.18572998,1239.875
539.470397949,1233.1
539.755004883,1229.0
540.039550781,1194.6
540.32409668,1166.025
540.608703613,1187.625
540.893188477,1276.175
541.17767334,1285.95
541.462158203,1291.9
541.746643066,1225.725
542.031066895,1266.525
542.315429688,1317.55
542.59979248,1304.525
542.884216309,1284.5
543.168579102,1290.375
543.452941895,1298.45
543.737243652,1342.675
544.021484375,1389.05
544.305725098,1373.275
544.590026855,1353.55
544.874267578,1355.275
545.158447266,1416.6
545.442626953,1352.625
545.726806641,1265.85
546.010925293,1288.725
546.29510498,1308.075
546.579162598,1315.075
546.863220215,1329.025
547.147277832,1399.275
547.431335449,1463.075
547.715332031,1505.975
547.999328613,1590.8
548.283325195,1612.675
548.567260742,1486.9
548.851135254,1467.55
549.135070801,1429.575
549.419006348,1357.975
549.702819824,1435.975
549.986755371,1497.725
550.270507812,1464.375
550.554321289,1506.225
550.83807373,1512.175
551.121826172,1474.875
551.405517578,1494.275
551.689331055,1583.325
551.973022461,1768.325
552.256652832,1827.825
552.540344238,1747.35
552.823974609,1718.475
553.107543945,1718.75
553.391174316,1752.4
553.674743652,1788.1
553.958251953,1810.2
554.241821289,1823.375
554.525268555,1760.95
554.808776855,1756.875
555.092285156,1917.2
555.375671387,1989.15
555.659057617,1972.975
555.942504883,1995.525
556.225891113,2028.45
556.509216309,2001.8
556.792541504,1915.6
557.075866699,1975.05
557.359130859,2010.65
557.64239502,2009.65
557.92565918,2066.8
558.208862305,2060.25
558.49206543,2005.85
558.77532959,2023.875
559.058410645,2044.7
559.341552734,2028.025
559.624694824,2082.05
559.907775879,2137.025
560.190856934,2241.45
560.473937988,2231.275
560.756896973,2259.4
561.039978027,2285.775
561.322937012,2260.075
561.605895996,2249.2
561.88885498,2213.55
562.171813965,2197.075
562.454650879,2200.5
562.737548828,2231.725
563.020446777,2295.175
563.303283691,2296.0
563.58605957,2342.1
563.868896484,2349.3
564.151672363,2387.55
564.434387207,2408.45
564.717163086,2387.2
564.99987793,2423.375
565.282531738,2474.75
565.565185547,2417.825
565.847839355,2421.475
566.130432129,2532.425
566.413085938,2501.925
566.695678711,2518.725
566.978149414,2611.225
567.260681152,2722.625
567.543273926,2779.8
567.825744629,2694.5
568.108154297,2729.525
568.390686035,2834.0
568.673095703,2936.5
568.955505371,2963.525
569.237854004,2993.35
569.520202637,3209.45
569.802490234,3383.175
570.084838867,3349.775
570.367126465,3221.15
570.649414062,3229.5
570.93170166,3501.2
571.213928223,3580.625
571.496154785,3379.35
571.778381348,3569.125
572.06048584,3785.1
572.342590332,3398.325
572.624755859,3115.35
572.906860352,3172.2
573.188903809,3720.45
573.470947266,3928.15
573.752990723,3730.925
574.03503418,3824.425
574.317016602,4128.9
574.598937988,3956.65
574.88092041,3862.6
575.162841797,4013.75
575.444763184,3708.65
575.726623535,3497.95
576.008483887,3525.2
576.290344238,3850.525
576.572143555,4032.0
576.853881836,4071.725
577.135681152,3981.275
577.417419434,4028.025
577.699157715,4738.4
577.980895996,4869.175
578.262573242,4330.725
578.544128418,3952.975
578.825866699,3905.075
579.107421875,3658.15
579.388977051,3820.675
579.670593262,4124.45
579.952148438,4004.325
580.233642578,4079.475
580.515197754,4186.7
580.796691895,3933.875
581.078125,4090.925
581.359619141,5296.55
581.640991211,5373.55
581.922363281,4636.2
582.203796387,4712.0
582.485107422,4391.325
582.766418457,4081.0
583.047790527,3954.775
583.329040527,3855.5
583.610290527,3757.675
583.891540527,3846.825
584.172790527,4095.95
584.453918457,4110.95
584.735107422,4162.725
585.016235352,4548.3
585.297363281,4506.775
585.578552246,4343.3
585.859619141,4302.925
586.140625,4126.575
586.421630859,3995.5
586.702697754,4048.7
586.983642578,4232.25
587.264648438,4366.8
587.545654297,4320.65
587.826477051,4276.875
588.107421875,4138.025
588.388305664,4164.5
588.669189453,4242.875
588.950012207,4103.5
589.230834961,4034.975
589.511657715,4120.225
589.792358398,4188.125
590.073120117,4195.85
590.353881836,4179.7
590.63458252,4188.125
590.915283203,4179.15
591.195922852,4156.5
591.4765625,4201.775
591.757202148,4240.475
592.037780762,4243.625
592.31829834,4238.15
592.598937988,4417.4
592.879394531,4545.825
593.159912109,4495.775
593.440429688,4421.75
593.720825195,4407.6
594.001281738,4435.075
594.281677246,4342.025
594.562072754,4359.6
594.842407227,4446.85
595.122802734,4473.875
595.403137207,4466.575
595.683410645,4449.15
595.963623047,4438.275
596.243896484,4434.025
596.524169922,4414.875
596.804382324,4436.75
597.084533691,4470.05
597.364746094,4498.65
597.644836426,4516.55
597.924987793,4510.075
598.205078125,4492.975
598.485107422,4523.725
598.765197754,4627.825
599.045227051,4668.55
599.325195312,4597.275
599.605224609,4549.25
599.885192871,4588.675
600.165100098,4636.05
600.445007324,4590.575
600.724914551,4589.0
601.004760742,4606.475
601.284667969,4631.5
601.56451416,4602.975
601.844238281,4627.65
602.124084473,4602.05
602.403808594,4637.65
602.683532715,4649.775
602.963256836,4655.075
603.242919922,4700.525
603.522583008,4729.175
603.802246094,4708.95
604.081848145,4677.375
604.36138916,4680.275
604.641052246,4713.175
604.920532227,4679.55
605.200073242,4727.375
605.479614258,4740.85
605.759094238,4751.425
606.038574219,4759.875
606.317932129,4705.975
606.597412109,4731.075
606.87677002,4768.275
607.15612793,4779.475
607.435546875,4784.475
607.714782715,4795.375
607.99407959,4759.425
608.273376465,4760.1
608.552612305,4766.775
608.831848145,4802.325
609.111083984,4776.375
609.390258789,4767.575
609.669433594,4772.4
609.948608398,4837.175
610.227722168,4818.45
610.506713867,4777.25
610.785888672,4771.275
611.064880371,4789.725
611.34387207,4799.35
611.622924805,4821.975
611.901916504,4806.575
612.180847168,4767.15
612.459777832,4773.325
612.738647461,4771.0
613.01751709,4755.1
613.296447754,4709.55
613.575317383,4700.95
613.854064941,4662.2
614.132873535,4594.15
614.411621094,4553.775
614.690368652,4506.75
614.969177246,4468.6
615.247802734,4388.575
615.526489258,4375.5
615.805175781,4273.375
616.08380127,4182.65
616.362365723,4118.675
616.640991211,4075.35
616.919555664,4046.15
617.198059082,4136.375
617.4765625,4380.45
617.755126953,4512.45
618.033569336,4528.65
618.311950684,4541.05
618.590454102,4518.75
618.868774414,4526.925
619.147155762,4520.0
619.425598145,4514.975
619.703857422,4538.75
619.982177734,4515.4
620.260498047,4514.75
620.538757324,4495.425
620.816955566,4472.2
621.095214844,4451.35
621.373413086,4444.4
621.651550293,4489.5
621.929748535,4510.475
622.207824707,4507.475
622.485900879,4506.625
622.764038086,4508.625
623.042053223,4546.5
623.320007324,4559.65
623.598083496,4573.15
623.876037598,4537.4
624.153991699,4580.825
624.432006836,4606.75
624.709838867,4614.4
624.987731934,4607.925
625.265563965,4596.55
625.543395996,4604.775
625.821228027,4650.725
626.098999023,4639.0
626.376831055,4688.975
626.654541016,4690.725
626.932250977,4736.35
627.209960938,4767.75
627.487670898,4792.175
627.765319824,4780.8
628.04296875,4785.125
628.320495605,4815.325
628.598083496,4816.375
628.875671387,4825.0
629.153259277,4854.225
629.430725098,4885.975
629.708251953,4868.125
629.985656738,4893.35
630.263122559,4929.875
630.540588379,4936.2
630.817932129,4962.8
631.095275879,4999.95
631.372680664,5003.25
631.649963379,5054.425
631.927246094,5081.15
632.204589844,5114.75
632.481811523,5159.5
632.759033203,5253.9
633.036254883,5239.45
633.313415527,5307.725
633.590576172,5366.4
633.867736816,5446.25
634.144836426,5490.675
634.421875,5545.25
634.698913574,5598.375
634.976013184,5631.925
635.252990723,5692.05
635.529968262,5722.3
635.807006836,5772.725
636.08392334,5729.475
636.360839844,5670.95
636.637756348,5584.025
636.914611816,5580.85
637.191467285,5524.225
637.468261719,5604.25
637.745056152,5549.625
638.021789551,5596.45
638.298583984,5556.45
638.575317383,5609.125
638.851989746,5632.15
639.12878418,5601.65
639.405395508,5576.725
639.682006836,5607.35
639.958618164,5596.1
640.235229492,5586.65
640.511779785,5604.7
640.788330078,5600.625
641.064880371,5606.7
641.341308594,5591.05
641.617797852,5575.275
641.894226074,5565.25
642.170654297,5599.325
642.44708252,5579.1
642.723388672,5553.65
642.999755859,5562.875
643.276123047,5554.025
643.552429199,5514.675
643.828674316,5517.325
644.104919434,5524.525
644.381164551,5478.15
644.657348633,5498.4
644.933532715,5460.65
645.209716797,5472.6
645.485839844,5453.4
645.761901855,5429.2
646.038024902,5412.8
646.314086914,5437.925
646.590087891,5403.5
646.866149902,5426.475
647.142150879,5393.25
647.41809082,5374.4
647.694030762,5357.05
647.969970703,5355.55
648.245788574,5364.175
648.521728516,5344.775
648.797546387,5336.4
649.073303223,5349.2
649.349182129,5320.175
649.624938965,5294.175
649.900634766,5316.55
650.176391602,5280.0
650.452087402,5280.825
650.727783203,5278.525
651.003479004,5280.525
651.279052734,5253.15
651.554626465,5241.7
651.83026123,5223.75
652.105773926,5268.35
652.381286621,5185.775
652.656860352,5211.7
652.932312012,5211.175
653.207763672,5203.225
653.483215332,5222.0
653.758605957,5192.825
654.033935547,5181.0
654.309326172,5175.775
654.584716797,5211.525
654.859985352,5174.6
655.135253906,5211.225
655.410583496,5207.8
655.685791016,5993.775
655.9609375,9390.8
656.236206055,9143.025
656.511291504,6021.25
656.786437988,5288.325
657.061645508,5207.325
657.336669922,5160.775
657.611694336,5185.375
657.886779785,5197.225
658.161804199,5193.05
658.436828613,5165.225
658.711791992,5168.45
658.986755371,5187.775
659.261657715,5172.5
659.536621094,5163.3
659.811401367,5159.65
660.086303711,5167.125
660.36114502,5164.175
660.635864258,5139.6
660.910644531,5173.15
661.185424805,5151.6
661.460205078,5157.075
661.734863281,5160.625
662.009521484,5157.525
662.284179688,5145.025
662.558776855,5157.875
662.833435059,5177.475
663.108032227,5171.5
663.382568359,5139.275
663.657043457,5167.4
663.93157959,5177.15
664.206054688,5124.625
664.48046875,5166.55
664.755004883,5181.775
665.02935791,5184.625
665.303710938,5206.225
665.578125,5215.1
665.852416992,5196.325
666.126708984,5180.025
666.401062012,5194.125
666.675292969,5211.6
666.949462891,5208.025
667.223754883,5212.775
667.497924805,5229.925
667.772094727,5201.475
668.046264648,5190.925
668.3203125,5228.05
668.594421387,5229.5
668.868469238,5232.8
669.14251709,5219.275
669.416503906,5226.6
669.690551758,5218.675
669.964477539,5210.85
670.23840332,5222.5
670.512329102,5226.6
670.786254883,5197.525
671.060058594,5204.1
671.333984375,5202.375
671.607788086,5212.775
671.881530762,5201.45
672.155334473,5211.25
672.429077148,5230.925
672.702758789,5245.725
672.97644043,5196.85
673.25012207,5203.75
673.523742676,5175.875
673.797302246,5195.0
674.070922852,5244.5
674.344482422,5218.125
674.618041992,5217.025
674.891601562,5197.875
675.165100098,5216.975
675.438476562,5213.55
675.711975098,5210.375
675.985412598,5182.375
676.258789062,5175.45
676.532165527,5189.475
676.805480957,5173.275
677.078796387,5181.3
677.352111816,5178.175
677.625366211,5188.55
677.898620605,5169.45
678.171875,5213.175
678.445007324,5185.6
678.718200684,5207.575
678.991394043,5188.3
679.264404297,5167.125
679.537536621,5188.75
679.81060791,5212.9
680.083679199,5213.0
680.356689453,5192.6
680.629699707,5191.525
680.902648926,5150.825
681.175598145,5195.3
681.448547363,5203.125
681.721435547,5168.35
681.99420166,5161.4
682.267150879,5148.45
682.539916992,5200.25
682.812744141,5164.2
683.085510254,5164.4
683.358215332,5157.85
683.63092041,5148.475
683.903625488,5153.95
684.176330566,5152.0
684.448913574,5132.0
684.721557617,5102.925
684.99420166,5163.475
685.266662598,5141.525
685.539245605,5120.925
685.811767578,5144.85
686.084289551,5137.375
686.356689453,5147.45
686.629150391,5140.925
686.901550293,5158.425
687.17401123,5153.7
687.446350098,5170.35
687.718688965,5181.525
687.990966797,5203.4
688.263305664,5198.225
688.535522461,5168.1
688.807739258,5164.9
689.079956055,5185.3
689.352172852,5190.4
689.624328613,5184.375
689.896484375,5194.9
690.168518066,5195.5
690.440612793,5210.825
690.71270752,5224.525
690.984741211,5205.475
691.256713867,5230.075
691.528747559,5215.5
691.800720215,5204.575
692.072631836,5213.3
692.344543457,5238.325
692.616394043,5243.175
692.888244629,5254.6
693.160095215,5256.05
693.431945801,5268.125
693.703674316,5251.4
693.975463867,5218.1
694.247131348,5243.775
694.518859863,5236.875
694.790588379,5273.3
695.062255859,5269.175
695.33380127,5234.4
695.60546875,5240.025
695.87701416,5269.15
696.148498535,5284.6
696.42010498,5287.0
696.691589355,5296.775
696.96307373,5315.125
697.234558105,5325.1
697.50592041,5315.825
697.777282715,5340.35
698.048706055,5319.875
698.320068359,5354.975
698.591308594,5326.9
698.862670898,5302.0
699.133972168,5323.775
699.405151367,5338.1
699.676391602,5373.2
699.947570801,5332.15
700.21875,5336.9
700.489868164,5348.325
700.761047363,5340.3
701.032104492,5387.7
701.303100586,5347.825
701.57421875,5416.275
701.845214844,5381.375
702.116149902,5371.9
702.387207031,5369.425
702.65814209,5383.875
702.928955078,5409.825
703.199951172,5368.3
703.47076416,5368.7
703.741577148,5369.725
704.012451172,5371.575
704.28314209,5410.05
704.553955078,5385.2
704.824707031,5406.625
705.095397949,5420.3
705.366027832,5408.15
705.63671875,5398.45
705.907348633,5394.775
706.17791748,5405.4
706.448486328,5436.775
706.719055176,5439.05
706.989562988,5449.9
707.260131836,5459.1
707.530517578,5442.275
707.800964355,5473.175
708.071411133,5431.275
708.341796875,5451.05
708.612182617,5428.6
708.882446289,5442.025
709.152893066,5471.675
709.423156738,5444.325
709.693359375,5420.25
709.963623047,5464.375
710.233825684,5471.5
710.503967285,5479.375
710.774169922,5476.65
711.044311523,5460.1
711.31439209,5456.7
711.584533691,5480.525
711.854553223,5469.825
712.124572754,5483.95
712.39465332,5468.125
712.664611816,5523.875
712.934509277,5547.55
713.204467773,5503.575
713.474365234,5523.075
713.74420166,5511.425
714.014099121,5535.175
714.283874512,5540.975
714.553710938,5530.425
714.823486328,5527.7
715.093200684,5518.725
715.362915039,5542.275
715.632629395,5533.925
715.902282715,5529.15
716.171875,5522.425
716.441589355,5534.775
716.711181641,5523.075
716.980712891,5543.25
717.250244141,5543.525
717.519775391,5562.525
717.78918457,5556.425
718.058654785,5574.8
718.328125,5589.95
718.597473145,5587.55
718.866882324,5582.4
719.136230469,5596.5
719.405578613,5607.85
719.674865723,5596.325
719.944152832,5600.5
720.213439941,5583.1
720.48260498,5632.05
720.75177002,5656.725
721.020996094,5630.05
721.290100098,5622.85
721.559204102,5637.375
721.828308105,5630.275
722.097351074,5633.35
722.366455078,5627.55
722.635437012,5619.775
722.904418945,5598.825
723.173400879,5651.5
723.442321777,5676.9
723.711181641,5643.475
723.980102539,5683.775
724.248962402,5692.725
724.51776123,5654.675
724.786560059,5693.6
725.055358887,5700.1
725.324035645,5677.35
725.592834473,5704.725
725.86151123,5711.6
726.130187988,5730.8
726.398803711,5706.425
726.667419434,5717.025
726.935974121,5725.35
727.204528809,5709.85
727.473083496,5721.25
727.741638184,5694.525
728.010070801,5674.2
728.278564453,5674.575
728.546936035,5690.45
728.815368652,5642.875
729.08380127,5590.0
729.352111816,5631.775
729.620361328,5564.1
729.88873291,5615.925
730.156982422,5618.925
730.425231934,5639.8
730.693481445,5653.825
730.961669922,5671.575
731.229797363,5723.475
731.49798584,5735.475
731.766113281,5783.1
732.034118652,5827.45
732.302246094,5852.3
732.570251465,5869.075
732.838256836,5917.85
733.106262207,5995.925
733.374145508,6012.775
733.642089844,6035.625
733.909973145,6071.45
734.177856445,6141.725
734.445678711,6203.775
734.713562012,6270.675
734.981323242,6286.175
735.249084473,6314.225
735.516845703,6405.925
735.784545898,6462.975
736.052185059,6498.95
736.319885254,6581.25
736.587524414,6613.65
736.855102539,6643.4
737.122619629,6778.075
737.390197754,6793.25
737.657714844,6887.225
737.925170898,6925.025
738.192749023,7010.125
738.460144043,7076.375
738.727539062,7109.75
738.994995117,7194.825
739.262329102,7251.2
739.529663086,7333.525
739.79699707,7372.175
740.06427002,7407.3
740.331481934,7466.9
740.598754883,7564.375
740.865905762,7568.65
741.133056641,7689.45
741.40032959,7696.7
741.667358398,7753.1
741.934448242,7786.025
742.201599121,7818.825
742.468566895,7905.625
742.735534668,7979.2
743.002563477,7994.725
743.26953125,7972.9
743.536437988,8057.325
743.803405762,8143.8
744.0703125,8134.575
744.337097168,8205.8
744.604003906,8135.225
744.870727539,8240.65
745.137512207,8278.275
745.40423584,8286.525
745.670959473,8286.65
745.93762207,8325.35
746.204284668,8342.275
746.470947266,8372.75
746.737548828,8330.15
747.004089355,8395.25
747.270751953,8443.875
747.53717041,8465.5
747.803710938,8457.325
748.070251465,8428.625
748.336608887,8454.275
748.603027344,8416.475
748.869445801,8437.8
749.135803223,8475.625
749.402099609,8491.425
749.668457031,8511.175
749.934753418,8505.225
750.20098877,8490.425
750.467224121,8566.175
750.733459473,8532.525
750.999572754,8500.025
751.26574707,8447.15
751.531860352,8494.45
751.797912598,8481.175
752.064025879,8455.2
752.330078125,8443.55
752.596069336,8404.85
752.862060547,8427.775
753.127990723,8449.575
753.393920898,8456.15
753.659912109,8465.225
753.925720215,8499.35
754.19152832,8481.275
754.457397461,8449.85
754.723144531,8462.175
754.988952637,8419.9
755.254699707,8444.4
755.520385742,8461.825
755.786071777,8452.35
756.051696777,8470.6
756.317382812,8422.85
756.582946777,8408.65
756.848510742,8445.0
757.114074707,8403.975
757.379577637,8410.075
757.645080566,8469.0
757.910583496,8411.65
758.175964355,8367.8
758.441345215,8353.725
758.706848145,8272.025
758.972106934,8303.475
759.237426758,8342.4
759.502807617,8390.5
759.768005371,8370.875
760.03326416,8353.225
760.298522949,8310.925
760.563659668,8354.025
760.828857422,8354.225
761.093994141,8366.55
761.359130859,8334.2
761.624206543,8339.0
761.889282227,8319.1
762.15423584,8302.925
762.419250488,8282.0
762.684265137,8278.45
762.949157715,8242.375
763.214050293,8282.675
763.479003906,8255.15
763.743835449,8280.425
764.008666992,8293.125
764.2734375,8286.275
764.538208008,8302.025
764.802978516,8335.525
765.067687988,8315.625
765.332397461,8319.575
765.597045898,8296.05
765.861694336,8259.575
766.126342773,8247.475
766.390930176,8253.5
766.655395508,8226.65
766.920043945,8228.325
767.184509277,8214.875
767.448974609,8272.125
767.713439941,8238.75
767.977783203,8260.375
768.2421875,8292.55
768.506591797,8248.05
768.770874023,8324.4
769.03515625,8298.225
769.299499512,8295.1
769.563720703,8280.65
769.827941895,8231.15
770.092163086,8211.375
770.356323242,8258.7
770.620483398,8267.85
770.88458252,8287.2
771.148681641,8306.25
771.412719727,8293.875
771.676757812,8305.2
771.940734863,8275.25
772.204711914,8259.6
772.468688965,8278.775
772.73260498,8306.25
772.996459961,8299.725
773.260314941,7399.225
773.524169922,972.025
773.787963867,147.75
774.051696777,121.575
774.315551758,120.9
774.579223633,123.725
774.842895508,120.125
775.106567383,120.5
775.370239258,117.1
775.633789062,121.875
775.897399902,124.025
776.160949707,117.9
776.424499512,120.7
776.687988281,122.825
776.951477051,125.15
777.214904785,121.825
777.47833252,121.2
